Time,Chamber Pressure,Free Volume,Regressed Length,Thrust,Exit Pressure
0.0,101325.0,0.0036114178349341466,0.0,-251.58213976015136,1826.2417628707697
0.0017710583136748364,240526.8378688744,0.0036123845389690406,6.915923866657384e-06,-163.0352539495329,4335.1606849976315
0.007875662020936121,774351.3152779841,0.003616608263074718,3.712140307883411e-05,176.53278457438034,13956.60213268754
0.01787566202093612,1593724.294747115,0.003625021966012451,9.723509694529675e-05,697.7394493721745,28724.656951087545
0.027875662020936123,2255325.1310404222,0.0036344163540658826,0.00016426809821914958,1118.5865775448424,40649.08900229963
0.037875662020936125,2763354.560029427,0.0036443897130497885,0.00023533220335331462,1441.7462751883286,49805.61068981121
0.04787566202093613,3145414.8382710116,0.0036547412765874274,0.00030898310435517606,1684.7764560261571,56691.71417916535
0.05787566202093613,3429969.4865078786,0.003665353462378446,0.0003843751175323643,1865.7828876225929,61820.414721274086
0.06787566202093613,3641076.5450051357,0.0036761518369049263,0.0004609733422636432,2000.0689925243155,65625.3249276841
0.07787566202093613,3797667.2318765162,0.0036870871145309775,0.0005384240605613503,2099.676999729418,68447.65359327634
0.08787566202093612,3914138.0519063585,0.0036981257212634275,0.0006164867321463257,2173.764587647376,70546.87763171013
0.09787566202093612,4001234.164452374,0.003709244346801565,0.00069499471088751,2229.1667982088875,72116.6635494523
0.10787566202093611,4066887.626768683,0.0037204265890676694,0.0007738310467290897,2270.9292470371142,73299.9756122118
0.1178756620209361,4116914.5862583555,0.003731660792777751,0.0008529129025984051,2302.751610428302,74201.64176261381
0.12787566202093612,4155561.9973547375,0.0037429386122769005,0.0009321811989881116,2327.3353943037055,74898.20742924148
0.13787566202093612,4185923.1312309774,0.0037542540339342277,0.001011593575708512,2346.648241717061,75445.4245094576
0.14787566202093613,4210247.659832413,0.003765602700055678,0.0010911195293782725,2362.1211786368835,75883.8402014792
0.15787566202093614,4230170.48763415,0.003776981435610764,0.0011707370135417314,2374.7941748084336,76242.92137755633
0.16787566202093615,4246879.434610126,0.0037883879139371896,0.001250430040218084,2385.422807609181,76544.0768355491
0.17787566202093616,4261237.561676371,0.0037998204190108275,0.0013301869765657511,2394.556073787655,76802.8620443819
0.18787566202093617,4273872.157698842,0.003811277675514434,0.0014099993290255758,2402.5929944806044,77030.58301071041
0.19787566202093618,4285239.365075258,0.0038227587268842046,0.0014898608719948094,2409.8237238226498,77235.46106487299
0.20787566202093619,4295671.069985672,0.003834262847512323,0.001569767021449395,2416.4593760356806,77423.47799223883
0.2178756620209362,4305408.911199814,0.003845789479378538,0.0016497143835147209,2422.653658576998,77598.98899451339
0.2278756620209362,4314628.945740574,0.0038573381862174664,0.0017297004284393873,2428.518562073601,77765.16725391084
0.2378756620209362,4323459.54262691,0.0038689086203100563,0.001809723254716898,2434.1357426087498,77924.32644290569
0.24787566202093622,4331994.369547905,0.003880500498384869,0.0018897814181642982,2439.564782601014,78078.15479091453
0.2578756620209362,4340301.823501016,0.003892113584106205,0.0019698738078984474,2444.8491896736846,78227.8850583934
0.2678756620209362,4348431.8836551765,0.0039037476753329033,0.002049999556228709,2450.020755790377,78374.41805013463
0.2778756620209362,4356421.094689708,0.003915402594837545,0.0021301579731144455,2455.1027271782687,78518.41243299819
0.28787566202093623,4364296.193457339,0.003927078183539003,0.0022103484984379107,2460.1121112639994,78660.35010145295
0.29787566202093624,4372076.750463809,0.003938774295562699,0.0022905706672133952,2465.061356930165,78800.58378656139
0.30787566202093625,4379777.095401058,0.003950490794631472,0.00237082408420044,2469.9595793552403,78939.37176102884
0.31787566202093626,4387407.721983136,0.003962227551426211,0.0024511084053607684,2474.8134536357156,79076.9031594109
0.32787566202093626,4394976.313777342,0.003973984441653981,0.002531423324300806,2479.6278673216916,79213.31646728853
0.3378756620209363,4402488.493934292,0.00398576134463281,0.0026117685623497883,2484.4063973233774,79348.7130341065
0.3478756620209363,4409948.373609625,0.003997558142254159,0.0026921438612915933,2489.1516587645,79483.16695770959
0.3578756620209363,4417358.953482865,0.004009374718221711,0.002772548978035444,2493.86556039017,79616.7323211599
0.3678756620209363,4424722.417982119,0.004021210957492543,0.0028529836807045274,2498.549491724468,79749.44849572642
0.3778756620209363,4432040.351075401,0.0040330667458666385,0.002933447745762511,2503.2044603362397,79881.3440302228
0.3878756620209363,4439313.894676053,0.0040449419696852364,0.003013940955900475,2507.831192601458,80012.43950604388
0.3978756620209363,4446543.865024858,0.004056836515609103,0.0030944630984814803,2512.430207734382,80142.74963479105
0.40787566202093634,4453730.838271935,0.004068750270455548,0.003175013964394421,2517.0018722265727,80272.28480076633
0.41787566202093634,4460875.213464391,0.004080683121078661,0.003255593347208563,2521.546439913607,80401.05219623717
0.42787566202093635,4467977.258945089,0.0040926349542813574,0.003336201042549168,2526.0640814895287,80529.05665770924
0.43787566202093636,4475037.146560914,0.0041046056567508775,0.0034168368476358278,2530.5549062668792,80656.30128248292
0.44787566202093637,4482054.976905312,0.0041165951150115825,0.0034975005609406457,2535.0189782335806,80782.78788361474
0.4578756620209364,4489030.797960772,0.004128603215390514,0.003578191981934782,2539.456327911499,80908.51732592212
0.4678756620209364,4495964.618878772,0.004140629843992389,0.003658910910900196,2543.8669611219293,81033.48977434765
0.4778756620209364,4502856.420174145,0.004152674886681567,0.0037396571487895436,2548.2508654702733,81157.70487769843
0.4878756620209364,4509706.161273235,0.004164738229069188,0.0038204304971216664,2552.6080151474553,81281.16190469089
0.4978756620209364,4516513.786107404,0.0041768197565041285,0.003901230757903419,2556.938374487973,81403.85984476605
0.5078756620209364,4523279.227261568,0.004188919354066791,0.003982057733570997,2561.2419006088026,81525.79748286109
0.5178756620209364,4530002.409053589,0.0042010369065650045,0.004062911226945718,2565.518545368212,81646.97345491103
0.5278756620209364,4536683.249821961,0.004213172298531483,0.004143791041200527,2569.7682568209675,81767.38628908117
0.5378756620209364,4543321.663626694,0.004225325414222444,0.004224696979834465,2573.990980300273,81887.03443642311
0.5478756620209364,4549917.5615149755,0.004237496137617095,0.004305628846653053,2578.186659222862,82005.91629368647
0.5578756620209364,4556470.852463746,0.004249684352417761,0.00438658644575308,2582.355235688578,82124.03022030763
0.5678756620209364,4562981.444082153,0.004261889942050491,0.004467569581510675,2586.496650927202,82241.37455107033
0.5778756620209364,4569449.243135534,0.004274112789666023,0.0045485780585718194,2590.610845631766,82357.94760554988
0.5878756620209364,4575874.15593653,0.004286352778141015,0.004629611681844685,2594.6977602073407,82473.74769516234
0.5978756620209364,4582256.088637268,0.004298609790079478,0.004710670256493341,2598.7573349568893,82588.77312843072
0.6078756620209365,4588594.947447747,0.00431088370781435,0.004791753587932472,2602.7895102201915,82703.02221492109
0.6178756620209365,4594890.638799249,0.0043231744134091974,0.00487286148182288,2606.794226477785,82816.49326818789
0.6278756620209365,4601143.069466628,0.0043354817886599815,0.004953993744067542,2610.7714244287545,82929.18460797789
0.6378756620209365,4607352.146659901,0.004347805715096901,0.005035150180808113,2614.7210450489933,83041.09456188111
0.6478756620209365,4613517.778092915,0.004360146073986276,0.00511633059842175,2618.6430296348835,83152.22146656839
0.6578756620209365,4619639.872034784,0.00437250274633247,0.005197534803518192,2622.5373198360176,83262.56366871849
0.6678756620209365,4625718.33734851,0.004384875612879836,0.005278762602937016,2626.4038576797584,83372.11952571417
0.6778756620209365,4631753.083519915,0.004397264554114684,0.005360013803745046,2630.2425855896504,83480.88740616366
0.6878756620209365,4637744.020679346,0.004409669450267265,0.00544128821323387,2634.0534463992212,83588.86569029184
0.6978756620209365,4643691.059617974,0.004422090181313764,0.005522585638917441,2637.8363833623525,83696.052770234
0.7078756620209365,4649594.111799973,0.0044345266269783055,0.005603905888529745,2641.5913401610264,83802.44705025545
0.7178756620209366,4655453.089371667,0.004446978666734958,0.005685248770022524,2645.3182609111423,83908.0469469162
0.7278756620209366,4661267.905168336,0.004459446179809755,0.005766614091563039,2649.0170901668475,84012.8508891938
0.7378756620209366,4667038.4727193,0.00447192904518271,0.005848001661531861,2652.687772923774,84116.85731857487
0.7478756620209366,4672764.706251698,0.004484427141589841,0.005929411288520702,2656.330254621435,84220.06468912326
0.7578756620209366,4678446.520693274,0.004496940347525189,0.00601084278133026,2659.944481145005,84322.47146753027
0.7678756620209366,4684083.831674405,0.004509468541242852,0.006092295948968083,2663.530398826604,84424.0761331511
0.7778756620209366,4689676.555529584,0.004522011600759005,0.0061737706006464565,2667.0879544462464,84524.87717803175
0.7878756620209366,4695224.609298485,0.004534569403853935,0.0062552665457803,2670.617095232511,84624.87310692806
0.7978756620209366,4700727.910726678,0.004547141828074065,0.006336783593985079,2674.1177688630028,84724.0624373187
0.8078756620209366,4706186.378266123,0.004559728750733989,0.0064183215550747295,2677.589923464665,84822.44369941404
0.8178756620209366,4711599.93107548,0.004572330048918498,0.00649988023905959,2681.0335076139736,84920.01543616167
0.8278756620209367,4716968.489020292,0.004584945599484617,0.006581459456144353,2684.4484703370567,85016.77620324983
0.8378756620209367,4722291.972673014,0.004597575279063634,0.006663059016726014,2687.834761109714,85112.72456910781
0.8478756620209367,4727570.303313028,0.0046102189640631315,0.006744678731391837,2691.192329857422,85207.85911490633
0.8578756620209367,4732803.402926569,0.0046228765306690215,0.006826318410917334,2694.5211269552906,85302.17843455607
0.8678756620209367,4737991.194206578,0.004635547854847578,0.0069079778662642375,2697.821103227967,85395.6811347052
0.8778756620209367,4743133.600552579,0.004648232812347473,0.006989656908578499,2701.0922099495615,85488.36583473696
0.8878756620209367,4748230.546070487,0.004660931278701802,0.007071355349188283,2704.33439884352,85580.23116676639
0.8978756620209367,4753281.955572424,0.004673643129230131,0.007153072999601975,2707.5476220825126,85671.27577563685
0.9078756620209367,4758287.7545764875,0.004686368239040518,0.007234809671506196,2710.73183228828,85761.49831891597
0.9178756620209367,4763247.869306559,0.004699106483031557,0.007316565176763826,2713.8869825315182,85850.89746689216
0.9278756620209367,4768162.226692053,0.004711857735894409,0.007398339327412031,2717.013026331714,85939.47190257003
0.9378756620209368,4773030.754367697,0.004724621872114836,0.0074801319356603,2720.1099176570087,86027.22032166655
0.9478756620209368,4777853.380673305,0.004737398765975241,0.007561942813888492,2723.177610924048,86114.14143260679
0.9578756620209368,4782630.034653524,0.004750188291556699,0.007643771774644883,2726.2160609978305,86200.23395651953
0.9678756620209368,4787360.646057613,0.004762990322740995,0.007725618630644229,2729.2252231915572,86285.49662723318
0.9778756620209368,4792045.145339195,0.004775804733212661,0.007807483194765828,2732.2050532664794,86369.9281912713
0.9878756620209368,4796683.463656015,0.0047886313964610105,0.007889365280051594,2735.155507431745,86453.5274078483
0.9978756620209368,4801275.532869727,0.004801470185782176,0.007971264699704132,2738.0765423442585,86536.29304886558
1.0078756620209368,4805821.285545631,0.004814320974281146,0.00805318126708483,2740.9681151085188,86618.22389890671
1.0178756620209368,4810320.654952459,0.004827183634873802,0.008135114795711945,2743.8301832764796,86699.31875523369
1.0278756620209368,4814773.575062143,0.004840058040288955,0.008217065099258706,2746.6627048474047,86779.57642778274
1.0378756620209368,4819179.98054957,0.004852944063070385,0.008299031991551416,2749.4656382677094,86858.99573915981
1.0478756620209368,4823539.806792357,0.004865841575578878,0.00838101528656756,2752.238942430818,86937.57552463662
1.0578756620209369,4827852.989870642,0.004878750449994262,0.00846301479843393,2754.982576677034,87015.31463214684
1.0678756620209369,4832119.4665668495,0.004891670558317447,0.008545030341424741,2757.696500793385,87092.21192228183
1.0778756620209369,4836339.174365456,0.004904601772372463,0.008627061729959768,2760.3806750134795,87168.26626828653
1.0878756620209369,4840512.051452801,0.004917543963808499,0.008709108778602469,2763.035060017382,87243.47655605595
1.097875662020937,4844638.036716834,0.004930497004101942,0.008791171302058141,2765.6596169314566,87317.84168413062
1.107875662020937,4848717.069746926,0.004943460764558414,0.008873249115172054,2768.254307328243,87391.36056369326
1.117875662020937,4852749.090833654,0.004956435116314814,0.008955342032927608,2770.8190932263196,87464.03211856478
1.127875662020937,4856734.040968569,0.004969419930341356,0.009037449870444495,2773.353937090161,87535.85528520026
1.137875662020937,4860671.861844014,0.004982415077443608,0.009119572442976858,2775.8588018300156,87606.82901268551
1.147875662020937,4864562.495852915,0.0049954204282645345,0.009201709565911457,2778.3336508017765,87676.95226273336
1.157875662020937,4868405.886088557,0.005008435853286532,0.009283861054765849,2780.778447806839,87746.22400967972
1.167875662020937,4872201.976344414,0.0050214612228334735,0.009366026725186565,2783.1931570919915,87814.64324048035
1.177875662020937,4875950.711113933,0.005034496407072747,0.009448206392947293,2785.5777433492754,87882.20895470704
1.187875662020937,4879652.035590334,0.005047541276017297,0.00953039987394707,2787.932171715865,87948.9201645441
1.197875662020937,4883305.895666423,0.005060595699527663,0.009612606984208473,2790.256407773943,88014.77589478482
1.207875662020937,4886912.237934419,0.005073659547314026,0.009694827539875822,2792.550417550589,88079.77518282844
1.217875662020937,4890471.00968573,0.005086732688938242,0.009777061357213384,2794.8141675176416,88143.91707867614
1.227875662020937,4893982.158910798,0.005099814993815888,0.009859308252603576,2797.047624591599,88207.2006449282
1.237875662020937,4897445.634298908,0.005112906331218306,0.00994156804254519,2799.2507561334955,88269.62495678058
1.247875662020937,4900861.385237995,0.005126006570274637,0.010023840543651595,2801.4235299487796,88331.1891020214
1.257875662020937,4904229.3618144905,0.005139115579973872,0.010106125572648979,2803.565914287215,88391.89218102822
1.267875662020937,4907549.514813119,0.005152233229166889,0.010188422946374561,2805.6778778427556,88451.73330676438
1.277875662020937,4910821.795716758,0.005165359386568492,0.010270732481774828,2807.7593897534516,88510.71160477641
1.287875662020937,4914046.156706228,0.005178493920759463,0.01035305399590377,2809.810419601317,88568.82621319035
1.297875662020937,4917222.550660159,0.005191636700188596,0.01043538730592112,2811.8309374122477,88626.07628270923
1.307875662020937,4920350.931154813,0.0052047875931747435,0.010517732229090603,2813.820913655903,88682.4609766099
1.317875662020937,4923431.252463922,0.00521794646790886,0.010600088582778172,2815.78031924561,88737.97947074023
1.327875662020937,4926463.469558522,0.005231113192456044,0.010682456184450271,2817.7091255382497,88792.63095351595
1.337875662020937,4929447.538106814,0.00524428763475758,0.01076483485167209,2819.6073043341767,88846.41462591822
1.3478756620209371,4932383.414473987,0.005257469662632986,0.010847224402105818,2821.4748278770985,88899.32970149045
1.3578756620209371,4935271.0557220895,0.005270659143782052,0.010929624653508914,2823.3116688540017,88951.37540633598
1.3678756620209371,4938110.419609859,0.005283855945786889,0.011012035423732369,2825.1178003950363,89002.55097911497
1.3778756620209371,4940901.464592587,0.005297059936113971,0.01109445653071898,2826.893196073439,89052.85567104204
1.3878756620209372,4943644.149821976,0.005310270982116176,0.011176887792501623,2828.637829905428,89102.28874588358
1.3978756620209372,4946338.435145995,0.005323488951034836,0.011259329027201531,2830.3516763501266,89150.84947995524
1.4078756620209372,4948984.281108748,0.005336713710001778,0.011341780053026575,2832.034710309471,89198.53716211961
1.4178756620209372,4951581.64895033,0.005349945126041368,0.011424240688269553,2833.6869071281176,89245.3510937834
1.4278756620209372,4954130.500606695,0.005363183066072559,0.011506710751306467,2835.308242593365,89291.29058889534
1.4378756620209372,4956630.7987095285,0.005376427396910933,0.011589190060594824,2836.8986929350667,89336.35497394366
1.4478756620209372,4959082.506586125,0.005389677985270748,0.011671678434671926,2838.458234825559,89380.54358795402
1.4578756620209372,4961485.588259253,0.005402934697766981,0.01175417569215317,2839.9868453795693,89423.855782487
1.4678756620209372,4963840.008447037,0.005416197400917378,0.011836681651730345,2841.484502154147,89466.29092163606
1.4778756620209372,4966145.73256285,0.005429465961144493,0.011919196132169933,2842.9511831485884,89507.84838202546
1.4878756620209372,4968402.726715178,0.0054427402447777395,0.012001718952311422,2844.3868668043583,89548.52755280795
1.4978756620209372,4970610.957707517,0.005456020118055435,0.012084249931065607,2845.7915320050165,89588.32783566287
1.5078756620209373,4972770.3930382645,0.005469305447126844,0.012166788887412905,2847.165158076155,89627.24864479418
1.5178756620209373,4974881.000900607,0.005482596098054228,0.01224933564040167,2848.5077247853237,89665.28940692842
1.5278756620209373,4976942.750182408,0.00549589193681489,0.012331890009146505,2849.8192123419585,89702.44956131278
1.5378756620209373,4978955.610466129,0.00550919282930322,0.012414451812826587,2851.099601397334,89738.72855971352
1.5478756620209373,4980919.552028698,0.005522498641332745,0.012497020870683984,2852.3488730444747,89774.12586641376
1.5578756620209373,4982834.545841438,0.005535809238638172,0.012579597002021978,2853.567008818117,89808.64095821207
1.5678756620209373,4984700.563569963,0.005549124486877436,0.01266218002620339,2854.753990694634,89842.2733244207
1.5778756620209373,4986517.57757408,0.005562444251633748,0.01274476976264892,2855.9098010919824,89875.02246686372
1.5878756620209373,4988285.560907717,0.005575768398417643,0.012827366030835455,2857.0344228696495,89906.8878998758
1.5978756620209373,4990004.487318824,0.005589096792669022,0.012909968650294427,2858.127839328594,89937.86915030032
1.6078756620209373,4991674.331249305,0.005602429299759208,0.012992577440610128,2859.1900342112017,89967.96575748829
1.6178756620209374,4993295.067834918,0.005615765784992985,0.013075192221418053,2860.2209917012206,89997.17727329643
1.6278756620209374,4994866.672905213,0.005629106113610651,0.013157812812403242,2861.220696423725,90025.50326208609
1.6378756620209374,4996389.12298345,0.005642450150790066,0.01324043903329861,2862.1891334450593,90052.94330072179
1.6478756620209374,4997862.395286531,0.0056557977616486935,0.013323070703883302,2863.126288272798,90079.49697856996
1.6578756620209374,4999286.467724937,0.005669148811245658,0.013405707643981026,2864.032146855702,90105.16389749787
1.6678756620209374,5000661.318902652,0.005682503164583786,0.013488349673458404,2864.9066955836747,90129.94367187216
1.6778756620209374,5001986.928117111,0.005695860686611658,0.013570996612223314,2865.7499212877265,90153.835928558
1.6878756620209374,5003263.275359132,0.005709221242225653,0.013653648280223241,2866.5618112399297,90176.84030691777
1.6978756620209374,5004490.341312863,0.005722584696272004,0.013736304497443627,2867.342353153388,90198.9564588102
