Time,Position,Velocity
0.0,0.0,0.0
1.5982179384254867e-06,-4.415736382905065e-11,-3.274051359289297e-05
3.1964358768509735e-06,-1.3934724855511825e-10,-6.54672298291776e-05
1.917861526110584e-05,-5.568406375805591e-09,-0.00039151943102410123
3.516079464536071e-05,-1.6075266762159547e-08,-0.0007161885337468169
9.243697140091731e-05,-9.248635695742275e-08,-0.0018690592835084968
0.0001497131481564739,-2.325214501524552e-07,-0.00300427536933945
0.00020698932491203047,-4.365352157096436e-07,-0.004121472952116394
0.0004354656205439871,-1.8624339149185612e-06,-0.008397184437095747
0.0006639419161759436,-4.229818843922305e-06,-0.012384037029858167
0.0008924182118079002,-7.475517714980186e-06,-0.016081874565142325
0.0015249093341443021,-2.0237929418191412e-05,-0.024651705321405943
0.0021574004564807042,-3.7573600940205815e-05,-0.03066708956361186
0.0027898915788171063,-5.788846547922489e-05,-0.0340538902234621
0.0032437064010958547,-7.355083350036513e-05,-0.035101785743282335
0.003697521223374603,-8.949049636077904e-05,-0.035242976844009476
0.004151336045653351,-0.00010530391565216064,-0.03455823903376767
0.0047192641774816335,-0.00012430498894439496,-0.0325657287051466
0.005287192309309916,-0.00014181267570600225,-0.02931154995166353
0.005855120441138198,-0.00015709533132159283,-0.02473587499201087
0.006567887625846282,-0.00017195872642901603,-0.016847809401690624
0.007280654810554365,-0.00018036430893963605,-0.006385627065244275
0.0075677615629426145,-0.00018150168647817095,-0.0014162287085012191
0.007854868315330863,-0.0001811478356060922,0.003977717381306542
0.00814197506771911,-0.0001791812292323094,0.009793990325211468
0.008429081820107358,-0.00017548301854026434,0.0160331478729889
0.00942908182010736,-0.0001465810370250048,0.04107340426766829
0.01042908182010736,-8.980703913876312e-05,0.07143719918977104
0.011429081820107361,7.311298760415543e-08,0.10730558555795394
0.012429081820107362,0.00012858609612401378,0.1487505114364169
0.013429081820107363,0.0003013284793628642,0.19578984480547046
0.014429081820107364,0.0005234103304591967,0.24760326298424695
0.015429081820107365,0.000798732932350781,0.3025931911121717
0.016429081820107366,0.0011302117719664314,0.3600428729658192
0.017429081820107366,0.0015202711436445773,0.41975368676579805
0.018429081820107367,0.0019711717431128467,0.4816979959846027
0.019429081820107368,0.002485115649136509,0.545832572428903
0.02042908182010737,0.0030641198992978056,0.6118705951604878
0.02142908182010737,0.0037100314187878108,0.6796729750195367
0.02242908182010737,0.004424606062269125,0.7491988479207368
0.023429081820107372,0.005209567245485975,0.8204416890419881
0.024429081820107373,0.006066631765097545,0.893402320585458
0.025429081820107374,0.006997516989123667,0.9680818042367059
0.026429081820107374,0.008003941501145065,1.0444805866158213
0.027429081820107375,0.009087624504405993,1.1225987827547368
0.028429081820107376,0.010250285396807349,1.2024364032883834
0.029429081820107377,0.01149361654154843,1.2839483314441607
0.030429081820107378,0.012819136029576843,1.3668666748300118
0.031429081820107375,0.01422819985705069,1.4510619965562506
0.03242908182010737,0.015722077640969483,1.5364963649745296
0.03342908182010736,0.017302008403435484,1.6231637554233218
0.034429081820107364,0.018969121598196453,1.7110643634524751
0.035429081820107365,0.020724668772658942,1.8001997686803308
0.036429081820107366,0.022569940822102577,1.8905707222989796
0.03742908182010737,0.02450620405821494,1.9821772240882978
0.03842908182010737,0.026534698337096367,2.0750190939255293
0.03942908182010737,0.028656623397579472,2.1690343112010817
0.04042908182010737,0.030872959630552057,2.2638355202308342
0.04142908182010737,0.03318437535260857,2.3591311519869986
0.04242908182010737,0.03559132306448388,2.454831977346741
0.04342908182010737,0.03809419274015384,2.550951214646719
0.04442908182010737,0.04069339715812995,2.647512822790705
0.045429081820107374,0.0433893798591909,2.744524331043036
0.046429081820107375,0.046182594520310045,2.8419833961888257
0.047429081820107376,0.04907349108930454,2.9398869428703893
0.04842908182010738,0.05206251428491851,3.038233959525122
0.04942908182010738,0.05515009330213166,3.1369976507286332
0.05042908182010738,0.058336561489937495,3.2360094278714726
0.05142908182010738,0.061622115698819764,3.3351422408982563
0.05242908182010738,0.06500685854178413,3.43435714547579
0.05342908182010738,0.06849086538981924,3.533659863867045
0.05442908182010738,0.07207422158929319,3.633060829101238
0.05542908182010738,0.07575702590756807,3.7325633251336714
0.056429081820107384,0.07953938152790428,3.8321663320724513
0.057429081820107385,0.08342139000319923,3.931868507745541
0.058429081820107386,0.08740315060339349,4.031669408163974
0.059429081820107386,0.0914847588394989,4.131563323905227
0.06042908182010739,0.09566628972848941,4.231514128882277
0.06142908182010739,0.09994778914069218,4.3314945661747455
0.06242908182010739,0.10432928277351107,4.431496265170376
0.06342908182010738,0.10881079046134365,4.531520442175282
0.06442908182010737,0.11339233415386765,4.63156933058964
0.06542908182010736,0.1180739386693102,4.731643632460483
0.06642908182010734,0.12285562977151679,4.831743126215239
0.06742908182010734,0.12773743536207058,4.931867484991235
0.06842908182010735,0.13271937904944459,5.032016670529663
0.06942908182010735,0.13780148390288302,5.1321892813445915
0.07042908182010735,0.1429837681229248,5.232376936766622
0.07142908182010735,0.148266245097922,5.332575583866946
0.07242908182010735,0.15364892558232018,5.432784031506265
0.07342908182010735,0.15913181937901882,5.533002086665452
0.07442908182010735,0.16471493609045174,5.6332297692057125
0.07542908182010735,0.17039828532986773,5.733467105615565
0.07642908182010735,0.1761818767410774,5.8337141044083545
0.07742908182010735,0.1820657199814084,5.933970764446316
0.07842908182010735,0.18804982470939066,6.034237081562869
0.07942908182010736,0.19413420040660026,6.134512762085847
0.08042908182010736,0.20031885543358963,6.23479608530473
0.08142908182010736,0.206603797107856,6.335086217487768
0.08242908182010736,0.21298903218894805,6.435382911096311
0.08342908182010736,0.21947456723586142,6.535686122989915
0.08442908182010736,0.2260604087633733,6.6359958536074055
0.08542908182010736,0.2327465632852801,6.736312104736872
0.08642908182010736,0.2395330373181718,6.836634874482596
0.08742908182010736,0.24641983737780987,6.936964158971487
0.08842908182010736,0.25340696997656553,7.037299953709639
0.08942908182010736,0.26049444158516644,7.13764219197814
0.09042908182010737,0.2676822584297781,7.237990500311318
0.09142908182010737,0.2749704265087644,7.338344695900962
0.09242908182010737,0.2823589516969615,7.438704721941904
0.09342908182010737,0.28984783982250006,7.539070565564293
0.09442908182010737,0.2974370967004087,7.63944222326517
0.09542908182010737,0.3051267281419077,7.739819691831019
0.09642908182010737,0.31291673995522,7.840202967255891
0.09742908182010737,0.3208071379447911,7.940592045108209
0.09842908182010737,0.3287979279107389,8.040986920822363
0.09942908182010737,0.33688911563897295,8.141387573695361
0.10042908182010737,0.3450807068485651,8.241793903450073
0.10142908182010738,0.3533727071960979,8.342205859266791
0.10242908182010738,0.36176512230271207,8.442623423011506
0.10342908182010738,0.370257957774034,8.54304658794688
0.10442908182010738,0.3788512192088925,8.643475349764893
0.10542908182010738,0.38754491220172876,8.743909704232058
0.10642908182010738,0.39633904234280637,8.844349646908793
0.10742908182010738,0.4052336152180082,8.944795173244552
0.10842908182010738,0.4142286364086935,9.045246278653483
0.10942908182010738,0.4233241114876317,9.145702951859613
0.11042908182010738,0.4325200459971807,9.246165148580634
0.11142908182010738,0.4418164454510898,9.346632845047283
0.11242908182010738,0.4512133153457175,9.447106031047031
0.11342908182010739,0.46071066116829695,9.547584701093971
0.11442908182010739,0.4703084884005495,9.648068850709398
0.11542908182010739,0.4800068025196849,9.74855847544511
0.11642908182010739,0.4898056089984876,9.849053570767
0.11742908182010739,0.4997049133052321,9.949554132094521
0.11842908182010739,0.5097047209036233,10.050060154832064
0.11942908182010739,0.5198050372499653,10.150571629701437
0.12042908182010739,0.5300058677778857,10.251088524314444
0.12142908182010739,0.5403072178995988,10.351610820644874
0.1224290818201074,0.550709093013758,10.452138510158106
0.1234290818201074,0.5612114985112437,10.552671587628685
0.1244290818201074,0.5718144397776923,10.65321004853616
0.1254290818201074,0.5825179221941967,10.75375388838122
0.1264290818201074,0.5933219511373665,10.85430310260422
0.1274290818201074,0.6042265319792688,10.954857686612781
0.1284290818201074,0.6152316700873851,11.05541763580378
0.1294290818201074,0.626337370822081,11.15598294138
0.1304290818201074,0.637543639522923,11.256553573842693
0.1314290818201074,0.6488504815098093,11.357129516558157
0.1324290818201074,0.6602579020900051,11.457710761394962
0.1334290818201074,0.6717659065633261,11.558297303185883
0.1344290818201074,0.683374500224404,11.658889137395155
0.1354290818201074,0.6950836883633145,11.759486259505907
0.1364290818201074,0.7068934762656301,11.860088664947137
0.1374290818201074,0.718803869212368,11.960696349118482
0.1384290818201074,0.7308148724799514,12.061309307409893
0.1394290818201074,0.7429264913377844,12.161927531192084
0.1404290818201074,0.7551387310351407,12.262550991996907
0.1414290818201074,0.7674515968022467,12.363179673685115
0.1424290818201074,0.7798650938570234,12.463813568265417
0.1434290818201074,0.7923792274100534,12.564452670587198
0.1444290818201074,0.8049940026667537,12.665096976104962
0.14542908182010741,0.8177094248279756,12.765746480291309
0.14642908182010742,0.8305254990900567,12.866401178566958
0.14742908182010742,0.8434422306447698,12.967061066324462
0.14842908182010742,0.8564596246792865,13.067726138947082
0.14942908182010742,0.8695776863738175,13.168396387906723
0.15042908182010742,0.8827964208888526,13.269071785368784
0.15142908182010742,0.8961158333662151,13.369752315496742
0.15242908182010742,0.9095359289356229,13.470437970383363
0.15342908182010742,0.9230567127195219,13.571128744885861
0.15442908182010742,0.9366781898352009,13.671824634450333
0.15542908182010742,0.9504003653953748,13.772525634540468
0.15642908182010742,0.9642232445082355,13.873231740569473
0.15742908182010742,0.9781468322774024,13.973942947923137
0.15842908182010743,0.9921711338018867,14.0746592519782
0.15942908182010743,1.0062961541737871,14.175380644291705
0.16042908182010743,1.020521898465829,14.276107097566584
0.16142908182010743,1.0348483717323933,14.376838596222697
0.16242908182010743,1.0492755790159254,14.477575132423418
0.16342908182010743,1.063803525351654,14.578316701031774
0.16442908182010743,1.0784322157696566,14.679063297485882
0.16542908182010743,1.0931616552954297,14.779814917241042
0.16642908182010743,1.107991848949938,14.880571555703236
0.16742908182010743,1.1229228017495658,14.981333208251685
0.16842908182010743,1.1379545187060829,15.082099870256766
0.16942908182010744,1.1530870048243917,15.182871533355184
0.17042908182010744,1.168320265090347,15.2836481707542
0.17142908182010744,1.1836543044717622,15.384429767114097
0.17242908182010744,1.199089127924673,15.485216314664276
0.17342908182010744,1.2146247403979507,15.586007808272987
0.17442908182010744,1.2302611468353204,15.686804243370604
0.17542908182010744,1.2459983521759206,15.787605615404312
0.17642908182010744,1.2618363613543475,15.888411919773072
0.17742908182010744,1.2777751793006105,15.989223151849698
0.17842908182010744,1.2938148109400984,16.090039306998356
0.17942908182010744,1.3099552611913754,16.190860376932246
0.18042908182010745,1.326196534954271,16.29168633534345
0.18142908182010745,1.3425386371108656,16.392517167123323
0.18242908182010745,1.3589815725316117,16.49335286456465
0.18342908182010745,1.3755253460798498,16.594193422540602
0.18442908182010745,1.3921699626137787,16.69503883647403
0.18542908182010745,1.408915426987002,16.795889101804207
0.18642908182010745,1.4257617440485746,16.896744213923277
0.18742908182010745,1.4427089186429574,16.99760416819779
0.18842908182010745,1.459756955609983,17.098468959985837
0.18942908182010745,1.4769058597827023,17.19933858107457
0.19042908182010745,1.4941556359757342,17.300213005624805
0.19142908182010746,1.511506288986229,17.401092218751316
0.19242908182010746,1.528957823599858,17.501976212808135
0.19342908182010746,1.5465102445952268,17.602864982673132
0.19442908182010746,1.5641635567458056,17.70375852376182
0.19542908182010746,1.5819177648204614,17.804656831505785
0.19642908182010746,1.5997728735835062,17.905559901290506
0.19742908182010746,1.6177288877946483,18.00646772847642
0.19842908182010746,1.6357858122089646,18.107380308415717
0.19942908182010746,1.653943651574789,18.208297632967096
0.20042908182010746,1.6722024106223166,18.309219676745425
0.20142908182010746,1.6905620940645472,18.410146425081837
0.20242908182010746,1.7090227066031434,18.511077870389627
0.20342908182010747,1.7275842529327492,18.612014007551203
0.20442908182010747,1.7462467377428776,18.71295483197494
0.20542908182010747,1.7650101657184318,18.813900339084903
0.20642908182010747,1.7838745415397521,18.914850524260086
0.20742908182010747,1.8028398698825703,19.01580538285498
0.20842908182010747,1.8219061554179763,19.116764910215988
0.20942908182010747,1.8410734028103608,19.21772909827117
0.21042908182010747,1.8603416167062572,19.318697922075515
0.21142908182010747,1.879710801735269,19.419671367169876
0.21242908182010747,1.8991809625158005,19.52064942602499
0.21342908182010747,1.9187521036592814,19.621632093527598
0.21442908182010748,1.938424229772016,19.722619365079115
0.21542908182010748,1.9581973454556934,19.823611236096323
0.21642908182010748,1.9780714553074294,19.924607701951864
0.21742908182010748,1.9980465639197265,20.025608757994434
0.21842908182010748,2.01812267588044,20.12661439956482
0.21942908182010748,2.038299795770762,20.227624618658293
0.22042908182010748,2.058577928154306,20.328639390756784
0.22142908182010748,2.078957077578009,20.42965870160454
0.22242908182010748,2.0994372485777424,20.53068254372799
0.22342908182010748,2.1200184456824496,20.63171091201806
0.22442908182010748,2.1407006734159517,20.73274380186938
0.22542908182010749,2.1614839362974476,20.83378120869163
0.2264290818201075,2.1823682388415553,20.93482312785128
0.2274290818201075,2.2033535855582747,21.035869554691374
0.2284290818201075,2.224439980952952,21.136920484547208
0.2294290818201075,2.2456274295243066,21.237975909479307
0.2304290818201075,2.266915935753746,21.33903580538392
0.2314290818201075,2.288305504106252,21.44010015820269
0.2324290818201075,2.3097961390358708,21.54116896051607
0.2334290818201075,2.3313878449897607,21.642242207219052
0.2344290818201075,2.3530806264099646,21.743319893699645
0.2354290818201075,2.374874487733893,21.8444020153606
0.2364290818201075,2.3967694333943745,21.945488567562403
0.2374290818201075,2.418765467819608,22.04657954564258
0.2384290818201075,2.4408625954331353,22.147674944931072
0.2394290818201075,2.463060820651907,22.24877475755175
0.2404290818201075,2.4853601478758214,22.34987895980321
0.2414290818201075,2.5077605814885926,22.450987537818765
0.2424290818201075,2.530262125863126,22.552100484231325
0.2434290818201075,2.5528647853654793,22.653217793939767
0.2444290818201075,2.575568564356598,22.754339462325696
0.2454290818201075,2.598373467192793,22.855465484785135
0.2464290818201075,2.621279498225782,22.956595856672703
0.2474290818201075,2.64428666180265,23.057730573320573
0.2484290818201075,2.667394962265816,23.158869630053474
0.2494290818201075,2.6906044039511476,23.26001301905681
0.2504290818201075,2.713914991177708,23.361160717020073
0.2514290818201075,2.7373267282486125,23.46231271026282
0.2524290818201075,2.76083961945629,23.563468991468902
0.2534290818201075,2.7844536690863633,23.664629555540994
0.2544290818201075,2.8081688814193444,23.765794397854435
0.2554290818201075,2.831985260731108,23.866963513798698
0.2564290818201075,2.8559028112929243,23.96813689872272
0.2574290818201075,2.8799215373714286,24.069314547953432
0.2584290818201075,2.9040414432285853,24.17049645681051
0.2594290818201075,2.928262533119837,24.271682617539163
0.2604290818201075,2.9525848112840722,24.3728730072089
0.2614290818201075,2.9770082819444568,24.47406761232029
0.2624290818201075,3.001532949313589,24.575266425606717
0.2634290818201075,3.0261588175973024,24.67646944197454
0.2644290818201075,3.0508858909963217,24.777676656793002
0.2654290818201075,3.0757141737067264,24.878888065445203
0.2664290818201075,3.1006436699199917,24.98010366327454
0.2674290818201075,3.1256743838229455,25.081323445602877
0.2684290818201075,3.1508063195977427,25.182547407744956
0.2694290818201075,3.176039481420048,25.283775542004147
0.2704290818201075,3.2013738734492136,25.385007825819578
0.2714290818201075,3.2268094998290864,25.48624424586788
0.2724290818201075,3.252346364693065,25.587484794930607
0.2734290818201075,3.277984472167817,25.688729467917696
0.2744290818201075,3.303723826374911,25.789978260192484
0.2754290818201075,3.329564431431262,25.891231167131856
0.2764290818201075,3.355506291449172,25.992488184073828
0.2774290818201075,3.381549410536293,26.09374930633533
0.2784290818201075,3.407693792795598,26.195014529226313
0.2794290818201075,3.433939442323603,26.29628384510675
0.2804290818201075,3.4602863632007397,26.39755723177545
0.2814290818201075,3.4867345594921564,26.49883467608039
0.2824290818201075,3.513284035252661,26.600116170850004
0.2834290818201075,3.53993479453037,26.701401710997708
0.2844290818201075,3.566686841368303,26.802691291881104
0.2854290818201075,3.5935401798048208,26.903984908871028
0.2864290818201075,3.6204948138736666,27.005282557300287
0.2874290818201075,3.647550747603926,27.106584232480984
0.2884290818201075,3.674707985020002,27.207889929718426
0.2894290818201075,3.701966530139871,27.309199641427718
0.2904290818201075,3.729326386965653,27.410513345757852
0.2914290818201075,3.7567875594843914,27.511831029723663
0.2924290818201075,3.784350051672902,27.613152686199225
0.2934290818201075,3.812013867501344,27.71447831010137
0.2944290818201075,3.839779010934783,27.815807896782086
0.2954290818201075,3.8676454859336227,27.917141441606375
0.2964290818201075,3.8956132964536394,28.01847893990194
0.2974290818201075,3.9236824464459494,28.119820386976237
0.2984290818201075,3.951852939856981,28.221165778130043
0.2994290818201075,3.9801247806267654,28.32251510583218
0.3004290818201075,4.008497972679698,28.423868348572796
