Time,Chamber Pressure,Free Volume,Regressed Length,Thrust,Exit Pressure
0.0,94016.70130400588,0.001207835942144271,0.0,-107.07467450495618,2467.2629227524617
0.0008465380208217219,209441.61052597448,0.001208101861117443,2.850662921647007e-06,-59.496113374591815,5496.337490733477
0.003981804911388,690665.0217411424,0.0012093475124508933,1.620346450198001e-05,138.86590087515032,18124.99456531493
0.011340201078021993,1741244.1604717327,0.0012130170146293737,5.5532877764925045e-05,571.9183859176541,45695.14880871591
0.021340201078021995,2745178.587076333,0.0012187499292000607,0.00011696087472007983,985.7437535012491,72041.21448939666
0.031340201078022,3351315.5064816927,0.0012248799937061,0.000182623185083784,1235.5955633721962,87947.95368166527
0.041340201078022,3705173.2780828616,0.001231207974834261,0.00025038463564386126,1381.4570046422436,97234.17780663543
0.051340201078022,3909328.6333515667,0.0012376420055850176,0.00031926216006509904,1465.610573540131,102591.78907728709
0.061340201078022,4026750.463144451,0.0012441350349480876,0.00038875353783711527,1514.0122724844753,105673.26846287993
0.071340201078022,4094384.82582153,0.0012506617160090974,0.00045858933812851187,1541.8913991031184,107448.18454717824
0.08134020107802199,4133513.9528479623,0.0012572079862034815,0.0005286210991703312,1558.020565456845,108475.04299863377
0.09134020107802199,4156303.6879448765,0.0012637658776223659,0.0005987656491242236,1567.4145759157846,109073.10980638265
0.10134020107802198,4169690.4986164453,0.0012703307876047966,0.0006689758327873651,1572.932667237416,109424.41740562578
0.11134020107802198,4177629.3193838834,0.0012768999976569219,0.0007392246326568732,1576.2050776012848,109632.75441232994
0.12134020107802197,4182378.4458492035,0.0012834718545176528,0.0008094963922523502,1578.1626845456533,109757.38486075909
0.13134020107802197,4185230.4871897027,0.0012900453119326614,0.0008797819069845187,1579.3383062046169,109832.2304547437
0.14134020107802198,4186927.6458673826,0.0012966196721981196,0.0009500756561673175,1580.037881092206,109876.76867637229
0.15134020107802199,4187897.778749193,0.0013031944395326487,0.0010203742331791942,1580.4377733419199,109902.22769435776
0.161340201078022,4188388.790227785,0.0013097692365119599,0.0010906754510636467,1580.6401700326114,109915.11321787616
0.171340201078022,4188545.304406268,0.0013163437562602209,0.0011609778309892595,1580.7046857377475,109919.22059054613
0.181340201078022,4188452.5118278544,0.0013229177350034915,0.0012312803086751327,1580.6664363044642,109916.78545205423
0.19134020107802202,4188161.3082522065,0.0013294909362611895,0.00130158206536757,1580.5464011472461,109909.14345041831
0.20134020107802203,4187702.74547839,0.0013360631417111228,0.0013718824302258565,1580.3573799289215,109897.10947226443
0.21134020107802204,4187096.3604063056,0.0013426341458929153,0.001442180823775917,1580.1074258296273,109881.19622084727
0.22134020107802205,4186354.9884774256,0.0013492037531254294,0.0015124767250521368,1579.8018296643256,109861.740534286
0.23134020107802206,4185487.552773835,0.001355771775704701,0.0015827696524417147,1579.4442695594214,109838.97657937526
0.24134020107802207,4184500.6843603235,0.001362338032844392,0.0016530591524774936,1579.0374788635797,109813.07837392323
0.2513402010780221,4183399.666046478,0.0013689023500478388,0.0017233447932542242,1578.5836351698392,109784.18455372592
0.2613402010780221,4182188.983448329,0.0013754645587315225,0.0017936261605415286,1578.0845874651993,109752.41283397608
0.2713402010780221,4180872.6475217068,0.0013820244959952704,0.0018639028554740676,1577.5419890800235,109717.86847344656
0.2813402010780221,4179454.383761058,0.0013885820044782107,0.001934174493166695,1576.9573756764707,109680.64923959984
0.2913402010780221,4177937.74340574,0.0013951369322648666,0.00200444070187362,1576.3322110881277,109640.84832695425
0.3013402010780221,4176326.16891098,0.0014016891328205443,0.002074701122468438,1575.6679143073732,109598.55607522637
0.3113402010780221,4174623.032533856,0.001408238464943788,0.0021449554081140053,1574.9658753906563,109553.86098193564
0.32134020107802214,4172831.6590779168,0.001414784792728713,0.0022152032240450137,1574.227464833912,109506.85029928734
0.33134020107802215,4170955.3392827646,0.0014213279855329877,0.002285444247417731,1573.4540390917955,109457.6103855529
0.34134020107802215,4168997.3376780353,0.0014278679179489683,0.00235567816719995,1572.6469438151182,109406.22691118043
0.35134020107802216,4166960.8971559326,0.0014344044697765233,0.0024259046840851557,1571.8075157356652,109352.78497879092
0.36134020107802217,4164849.2415963896,0.0014409375259966802,0.0024961235104213847,1570.9370837482961,109297.3691920698
0.3713402010780222,4162665.5773359505,0.0014474669767455953,0.002566334370149096,1570.0369695164215,109240.06369431468
0.3813402010780222,4160413.093950717,0.0014539927172885505,0.0026365369987446435,1569.108487794739,109180.9521889819
0.3913402010780222,4158094.9646336916,0.001460514647993816,0.002706731143167303,1568.1529465847732,109120.11794958917
0.4013402010780222,4155714.3463337854,0.0014670326743062866,0.0027769165618086095,1567.1716471921757,109057.64382336354
0.4113402010780222,4153274.37975677,0.0014735467067208497,0.002847093024443253,1566.165884227118,108993.6122312663
0.4213402010780222,4150778.189288132,0.001480056660755464,0.0029172603121810662,1565.1369455724926,108928.10516596858
0.43134020107802223,4148228.8828738355,0.0014865624569239508,0.0029874182174198095,1564.0861123347606,108861.2041887221
0.44134020107802224,4145629.5421935366,0.001493064020680116,0.0030575665437922203,1563.0146547933177,108792.99017147673
0.45134020107802225,4142983.081150483,0.001499561281911629,0.003127705105880147,1561.9237740695226,108723.53958325706
0.46134020107802226,4140292.128841622,0.0015060541742271736,0.003197833728306082,1560.8145538865563,108652.92141896859
0.47134020107802227,4137559.1129448484,0.0015125426347749765,0.003267952244825027,1559.6879949419458,108581.19938771374
0.4813402010780223,4134786.331935121,0.0015190266041710363,0.0033380604977334,1558.5450446753032,108508.43380794628
0.4913402010780223,4131975.9995802403,0.001525506026447033,0.0034081583374906688,1557.3866156096478,108434.68277516552
0.5013402010780222,4129130.272401511,0.0015319808490103226,0.003478245622472366,1556.2135966707885,108360.00288256172
0.5113402010780222,4126251.266648018,0.0015384510226113658,0.0035483222188044325,1555.0268601841797,108284.44966646859
0.5213402010780223,4123341.0688030687,0.0015449165013157265,0.00361838800024803,1553.8272662057161,108208.07788208211
0.5313402010780223,4120401.7420938425,0.0015513772424788764,0.003688442848115747,1552.6156652050336,108130.94167429196
0.5413402010780223,4117435.3305270886,0.0015578332067227177,0.003758486651207392,1551.392899729037,108053.09468358965
0.5513402010780223,4114443.861390958,0.0015642843579131511,0.00382851930575804,1550.1598054331666,107974.59011172355
0.5613402010780223,4111429.346804847,0.0015707306631382776,0.003898540715393772,1548.917211720246,107895.48076237127
0.5713402010780223,4108393.7846777793,0.0015771720926869772,0.003968550791092264,1547.665942135533,107815.81906629018
0.5813402010780223,4105339.159299445,0.0015836086200277128,0.004038549451146443,1546.406814610347,107735.65709682803
0.5913402010780223,4102267.4417032604,0.0015900402217874623,0.0041085366211300964,1545.140641611725,107655.04657945063
0.6013402010780223,4099180.589888386,0.001596466877730725,0.0041785122338647345,1543.8682302339353,107574.0388975682
0.6113402010780223,4096080.5489550033,0.0016028885707385708,0.004248476229387255,1542.590382254242,107492.68509608544
0.6213402010780223,4092969.251186814,0.001609305286787714,0.004318428554918131,1541.30789416691,107411.03588356655
0.6313402010780224,4089848.6161020123,0.0016157170149296062,0.004388369164829941,1540.0215572042162,107329.14163357287
0.6413402010780224,4086720.5504861064,0.0016221237472695453,0.00445829802061612,1538.7321573499787,107247.0523855242
0.6513402010780224,4083586.947028819,0.0016285254789415757,0.004528215090859343,1537.4404747776828,107164.81780892728
0.6613402010780224,4080449.5728873904,0.001634922207708846,0.004598120351068707,1536.1472379158738,107082.48427896308
0.6713402010780224,4077309.781811108,0.0016413139326788867,0.0046680137826447515,1534.8530047848587,107000.08732182403
0.6813402010780224,4074168.555138749,0.0016477006537426412,0.004737895371313476,1533.5581798959975,106917.65269060238
0.6913402010780224,4071026.632161355,0.0016540823714605423,0.004807765105992244,1532.2630679877059,106835.19978637632
0.7013402010780224,4067884.5952450745,0.0016604590869917341,0.004877622978055911,1530.9679091133971,106752.74389207312
0.7113402010780224,4064742.924561905,0.001666830802047053,0.004947468980860745,1529.672901201689,106670.29760875781
0.7213402010780224,4061602.0333407493,0.0016731975188573028,0.0050173031094343035,1528.3782145870155,106587.8717807201
0.7313402010780224,4058462.290611463,0.0016795592401513892,0.005087125360272353,1527.0840013848056,106505.47609234235
0.7413402010780225,4055324.03590481,0.001685915969140823,0.0051569357312049304,1525.7904015508564,106423.11945386764
0.7513402010780225,4052187.5887700203,0.0016922677095083452,0.005226734221307154,1524.4975468045054,106340.8102511674
0.7613402010780225,4049053.254947839,0.0016986144653992267,0.005296520830839036,1523.2055631731832,106258.55650773949
0.7713402010780225,4045921.330381631,0.0017049562414143055,0.005366295561204125,1521.9145726458053,106176.36598997099
0.7813402010780225,4042792.1038286146,0.0017112930426041561,0.005436058414920394,1520.6246942491316,106094.24627566422
0.7913402010780225,4039665.858563158,0.0017176248744640013,0.005505809395599107,1519.3360447498715,106012.2047987361
0.8013402010780225,4036542.873490374,0.0017239517429291085,0.0055755485079288835,1518.0487391137117,105930.24887844195
0.8113402010780225,4033423.423875867,0.0017302736543705086,0.005645275757663164,1516.7628908061206,105848.3857385262
0.8213402010780225,4030307.781825497,0.0017365906155909269,0.005714991151609899,1515.4786119901087,105766.62251981263
0.8313402010780225,4027196.216601861,0.001742902633820858,0.005784694697622694,1514.1960136566836,105684.96628850988
0.8413402010780225,4024088.994834119,0.0017492097167147373,0.005854386404592908,1512.9152057113395,105603.42404171768
0.8513402010780226,4020986.380657953,0.0017555118723471812,0.00592406628244238,1511.6362970317512,105522.00271109997
0.8613402010780226,4017888.6358097885,0.0017618091092092734,0.005993734342116563,1510.3593955066115,105440.70916535739
0.8713402010780226,4014796.003410286,0.0017681014361485316,0.006063390595565267,1509.084601351127,105359.54978466051
0.8813402010780226,4011708.550909345,0.00177438886174106,0.006133035055424793,1507.8119423683886,105278.52633908461
0.8913402010780226,4008626.0815091557,0.0017806713936214503,0.0062026677340943056,1506.5413374376333,105197.63366410111
0.9013402010780226,4005548.2118440666,0.0017869490383574118,0.006272288642864838,1505.2726285341666,105116.86169911604
0.9113402010780226,4002474.4357279823,0.001793221801403214,0.006341897791333236,1504.0056070062665,105036.19716038123
0.9213402010780226,3999404.1665272866,0.0017994896870711773,0.006411495187014618,1502.7400310414541,104955.62465297904
0.9313402010780226,3996336.7653660337,0.0018057526985151649,0.006481080835086961,1501.4756372927757,104875.12741100609
0.9413402010780226,3993271.55992666,0.0018120108377220633,0.00655065473822376,1500.212148628523,104794.68779095676
0.9513402010780226,3990207.8569989153,0.001818264105508589,0.0066202168964854865,1498.949279304947,104714.28760104252
0.9613402010780226,3987144.950867109,0.0018245125015216462,0.006689767307250334,1497.6867384235115,104633.90832129688
0.9713402010780227,3984082.12892295,0.0018307560242410582,0.006759305965171282,1496.424232244526,104553.53125087211
0.9813402010780227,3981018.6754263886,0.0018369946709838865,0.006828832862150792,1495.1614657373773,104473.13760673434
0.9913402010780227,3977953.8740283763,0.0018432284379098082,0.00689834798732734,1493.8981436204213,104392.7085898678
1.0013402010780226,3974887.0094650714,0.0018494573200272047,0.006967851327069901,1492.6339710593395,104312.22542973566
1.0113402010780226,3971817.368696684,0.001855681311199726,0.0070373428649777945,1491.3686541365764,104231.66941416645
1.0213402010780226,3968744.2416736847,0.0018619004041531709,0.007106822581884121,1490.1019001671712,104151.02190946155
1.0313402010780226,3965666.9218527125,0.001868114590482581,0.007176290455861642,1488.8334179114197,104070.26437393404
1.0413402010780226,3962584.7065442535,0.0018743238606594769,0.007245746462230294,1487.562917718186,103989.37836703288
1.0513402010780226,3959496.897146958,0.0018805282040391896,0.007315190573565807,1486.2901116214916,103908.34555549188
1.0613402010780226,3956402.7993058264,0.0018867276088682544,0.0073846227597090695,1485.0147134057172,103827.14771748109
1.0713402010780226,3953301.723018972,0.0018929220622918475,0.007454042987775993,1483.7364386496135,103745.76674540844
1.0813402010780226,3950192.983530948,0.0018991115503641453,0.007523451222168012,1482.4550050945313,103664.18466936328
1.0913402010780227,3947075.975878478,0.0019052960583440255,0.007592847424671228,1481.170163372441,103582.38561340612
1.1013402010780227,3943950.3820509044,0.001911475571698194,0.007662231555177666,1479.8817823982104,103500.361232042
1.1113402010780227,3940816.157786749,0.0019176500765413383,0.007731603572838535,1478.589843927099,103418.11036372514
1.1213402010780227,3937673.4464644142,0.0019238195597154784,0.007800963436947707,1477.2944070601984,103335.63677110845
1.1313402010780227,3934522.519025629,0.0019299840088385168,0.007870311107545403,1475.9955834806597,103252.94756446568
1.1413402010780227,3931363.7328422177,0.0019361434123355303,0.007939646545829829,1474.69352049843,103170.05212223959
1.1513402010780227,3928197.5035185576,0.0019422977594582397,0.008008969714437184,1473.3883894271219,103086.96135105909
1.1613402010780227,3925024.285538314,0.001948447040296372,0.008078280577631323,1472.0803776065304,103003.687177855
1.1713402010780227,3921844.5589656457,0.0019545912457834555,0.008147579101431343,1470.7696829208228,102920.24220086237
1.1813402010780227,3918658.8202961837,0.001960730367698792,0.008216865253696462,1469.4565100272762,102836.63944952433
1.1913402010780227,3915467.5761557324,0.001966864398666795,0.008286139004181492,1468.1410677588628,102752.89221912823
1.2013402010780228,3912271.3389556655,0.0019729933321545197,0.008355400324572012,1466.8235673333863,102669.01395679112
1.2113402010780228,3909070.623894342,0.001979117162467946,0.00842464918850555,1465.5042211174562,102585.01818276836
1.2213402010780228,3905865.946885659,0.0019852358847474,0.008493885571583079,1464.1832417726298,102500.91843609296
1.2313402010780228,3902657.823126946,0.0019913494949623882,0.008563109451373807,1462.8608416650916,102416.72823699335
1.2413402010780228,3899446.766108373,0.001997457989906024,0.00863232080741534,1461.53723245733,102332.46106089716
1.2513402010780228,3896233.2869275324,0.0020035613671891776,0.008701519621210614,1460.2126248256031,102248.13032044405
1.2613402010780228,3893017.893815343,0.0020096596252344345,0.008770705876222591,1458.8872282645173,102163.74935304414
1.2713402010780228,3889801.091808405,0.0020157527632699286,0.008839879557867409,1457.561250951968,102079.33141227966
1.2813402010780228,3886583.382523082,0.0020218407813230896,0.00890904065350643,1456.2348996560181,101994.88966197615
1.2913402010780228,3883365.264000205,0.0020279236802143346,0.008978189152437557,1454.908379670882,101910.4371721271
1.3013402010780228,3880147.2230951614,0.002034001461521636,0.009047325045881063,1453.5818916800947,101825.98671918851
1.3113402010780228,3876929.6069588857,0.0020400741270208927,0.009116448326751608,1452.2555787805159,101741.54741337823
1.3213402010780229,3873712.487794776,0.0020461416778325223,0.009185558988776623,1450.9294707346444,101657.12114951668
1.3313402010780229,3870495.7218097323,0.002052204114226297,0.009254657025509233,1449.6035082704489,101572.70415406811
1.3413402010780229,3867279.0146149313,0.002058261435564348,0.009323742429615305,1448.2775700398022,101488.28870144102
1.3513402010780229,3864061.967108347,0.0020643136402632373,0.00939281519237466,1446.9514915314192,101403.86431807467
1.361340201078023,3860844.1076887674,0.0020703607257693507,0.009461875303332666,1445.625078349591,101319.4186278256
1.371340201078023,3857624.9148966246,0.002076402688543656,0.009530922750057536,1444.2981155468144,101234.93794612668
1.381340201078023,3854403.8333427967,0.0020824395240530346,0.009599957517972005,1442.9703741897042,101150.40769800381
1.391340201078023,3851180.2849264843,0.0020884712267662466,0.009668979590237405,1441.6416159830396,101065.81271246451
1.401340201078023,3847953.676743242,0.0020944977901531515,0.009737988947674678,1440.311596529484,100981.13743002695
1.411340201078023,3844723.406665232,0.0021005192066862297,0.009806985568711464,1438.980067629785,100896.36604916156
1.421340201078023,3841488.867282551,0.0021065354678437213,0.009875969429347608,1437.646778907404,100811.48262972242
1.431340201078023,3838249.448689718,0.0021125465641139117,0.009944940503133697,1436.3114789571175,100726.4711660727
1.441340201078023,3835004.5404574415,0.002118552485000224,0.010013898761158813,1434.9739161577836,100641.31563882928
1.451340201078023,3831753.5330291386,0.002124553219026883,0.010082844172044816,1433.6338392479954,100556.00005151136
1.461340201078023,3828495.8187109707,0.0021305487537449826,0.010151776701945262,1432.2909977341747,100470.50845652181
1.471340201078023,3825230.7923742943,0.0021365390757388434,0.010220696314547594,1430.9451421801273,100384.82497358145
1.481340201078023,3821957.851954572,0.0021425241706325682,0.010289602971077673,1429.5960244126934,100298.93380282182
1.491340201078023,3818676.398806059,0.0021485040230967457,0.010358496630305953,1428.2433976679522,100212.81923409327
1.501340201078023,3815385.8379542455,0.002154478616855255,0.010427377248554835,1426.8870166952795,100126.46565358965
1.511340201078023,3812085.578278818,0.002160447934692155,0.010496244779706843,1425.5266378327633,100039.85754864979
1.521340201078023,3808775.0483701103,0.0021664119585247154,0.010565099175227528,1424.1620255432927,99952.97992387538
1.531340201078023,3805453.8092294633,0.002172370669947638,0.010633940384433192,1422.7929988700469,99865.8212587057
1.541340201078023,3802121.6022376087,0.00217832405069343,0.010702768355164191,1421.4194512092372,99778.3747662431
1.551340201078023,3798778.3029084313,0.002184272082710525,0.010771583034410379,1420.0413312472413,99690.63717962145
1.561340201078023,3795423.882635893,0.002190214748200293,0.010840384368762657,1418.6586271925473,99602.60774813776
1.571340201078023,3792058.381270898,0.0021961520296428236,0.01090917230473629,1417.2713554718412,99514.28751759198
1.581340201078023,3788681.8874439644,0.0022020839098146556,0.010977946789002177,1415.8795526189392,99425.67881389837
1.591340201078023,3785294.524432979,0.0022080103718007285,0.01104670776855203,1414.4832694494287,99336.7848722158
1.601340201078023,3781896.4400043474,0.0022139313990021826,0.01111545519081602,1413.0825668731516,99247.60957035069
1.6113402010780231,3778487.799103834,0.0022198469751411706,0.011184189003746218,1411.6775128813426,99158.15723694432
1.6213402010780231,3775068.7785931076,0.002225757084263523,0.011252909155875403,1410.268180377015,99068.43251334474
1.6313402010780231,3771639.5634561796,0.0022316617107398665,0.011321615596358126,1408.8546456112413,98978.44025405322
1.6413402010780231,3768200.3440629714,0.002237560839265626,0.011390308274998946,1407.4369870551857,98888.18545491241
