Time,Chamber Pressure,Free Volume,Regressed Length,Thrust,Exit Pressure,Exit Velocity
0.0,92634.59402078473,0.0012451612507289554,0.0,-105.50060643588715,2430.99253666296,1402.6426138610677
0.0025,416088.2558718865,0.0012459624565254299,1.057272352105006e-05,27.82815186209901,10919.327226615887,1402.6426138610677
0.005,984032.8498746634,0.0012474806450740344,3.060073730072519e-05,261.93694836508155,25823.79227936972,1402.6426138610677
0.0075,1471855.3155294992,0.0012490418329581894,5.1187671667610686e-05,463.0191164982159,38625.62712043727,1402.6426138610677
0.01,1847686.5472334074,0.001250523513695557,7.071841936723226e-05,617.9380967500208,48488.49669929083,1402.6426138610677
0.0125,2158953.333238204,0.0012519984749745031,9.015311025205518e-05,746.2433811605245,56657.013457932284,1402.6426138610677
0.015,2419427.3340136213,0.001253473251363905,0.00010957795434655458,853.6116975170172,63492.58453775702,1402.6426138610677
0.0175,2636693.3454897613,0.001254946312471079,0.00012897280428149517,943.1695258770026,69194.25633706903,1402.6426138610677
0.02,2817990.448310111,0.0012564185223553495,0.00014834908459914853,1017.9008412181994,73952.00271177651,1402.6426138610677
0.0225,2969445.628438875,0.0012578901715273672,0.00016771065338331995,1080.331209107068,77926.61302257852,1402.6426138610677
0.025,3095477.776277352,0.0012593597405369003,0.00018703760197369748,1132.2821119992038,81234.05139388714,1402.6426138610677
0.0275,3200131.14990676,0.001260827355065165,0.00020633161473153187,1175.420607565618,83980.45054335185,1402.6426138610677
0.03,3288536.3633249574,0.0012622971314091096,0.00022564674678836728,1211.8615532784006,86300.45222623841,1402.6426138610677
0.0325,3364318.303195961,0.0012637709634386635,0.00024500787651756485,1243.0991404078509,88289.18367357347,1402.6426138610677
0.035,3429547.1686839103,0.0012652484120404112,0.0002644092545351447,1269.9867124666212,90000.97273955261,1402.6426138610677
0.0375,3484738.471453069,0.0012667267051175944,0.0002838145036997859,1292.736765209717,91449.34790154044,1402.6426138610677
0.04,3530550.2891487204,0.0012682044477148543,0.0003032052129566583,1311.620560600312,92651.57896960239,1402.6426138610677
0.0425,3574431.655773537,0.001269695000654556,0.000322756348494966,1329.7086171430103,93803.14956686289,1402.6426138610677
0.045,3609243.5681049894,0.0012711785954252074,0.0003422092123475137,1344.058212131573,94716.7121506827,1402.6426138610677
0.0475,3629327.562828537,0.0012726390392146234,0.0003613519004799719,1352.3369067143747,95243.77271369837,1402.6426138610677
0.05,3634036.731086005,0.0012740715969953057,0.00038012251130471156,1354.2780427423027,95367.35454626112,1402.6426138610677
0.0525,3627735.718475581,0.0012754829915244419,0.0003986091456808043,1351.680742768761,95201.9982364367,1402.6426138610677
0.055,3619800.725051818,0.0012768914033439056,0.0004170499069140227,1348.4099100496683,94993.7616700055,1402.6426138610677
0.0575,3624619.5053256326,0.0012783264707802574,0.0004358329007568395,1350.396228543457,95120.22003046243,1402.6426138610677
0.06,3643832.2051409762,0.0012797948010869916,0.00045504451362723844,1358.3157722433855,95624.41536217366,1402.6426138610677
0.0625,3660001.674698654,0.0012812628940662193,0.00047424607545849573,1364.980885527695,96048.74776446923,1402.6426138610677
0.065,3671809.6194554605,0.001282726374083187,0.0004933804873850345,1369.8481626624362,96358.62147720644,1402.6426138610677
0.0675,3679206.7122931285,0.0012841838606300361,0.000512429769451032,1372.8972708327285,96552.7420179338,1402.6426138610677
0.07,3683276.5170291737,0.0012856367137088918,0.0005314117250033943,1374.5748589263887,96659.54515172614,1402.6426138610677
0.0725,3686235.488416894,0.001287089033831864,0.0005503799406917571,1375.7945575339304,96737.19689118465,1402.6426138610677
0.075,3691423.791818891,0.0012885476441515345,0.0005694235529559951,1377.9331947850985,96873.35257882516,1402.6426138610677
0.0775,3698450.8713077204,0.0012900123234136382,0.0005885396423283806,1380.8297821273006,97057.76292759884,1402.6426138610677
0.08,3704669.4551235866,0.0012914776806595932,0.0006076578061004064,1383.393104656396,97220.95607379638,1402.6426138610677
0.0825,3709933.7434034217,0.0012929430400915832,0.0006267692638906035,1385.5630631464508,97359.10581854779,1402.6426138610677
0.085,3714207.2124107988,0.0012944080087482013,0.0006458689169560138,1387.3246023824506,97471.25367618575,1402.6426138610677
0.08750000000000001,3717562.614535933,0.0012958724765044494,0.0006649553481921905,1388.7077111603023,97559.30887424572,1402.6426138610677
0.09,3720181.9782956797,0.0012973366160717395,0.000684030822133198,1389.7874222868331,97628.04835346577,1402.6426138610677
0.0925,3722356.6083335355,0.0012988008829978924,0.0007031012849516118,1390.6838125797904,97685.1167677867,1402.6426138610677
0.095,3724487.085419639,0.0013002660156671386,0.0007221763644585187,1391.5620028678425,97741.02648435207,1402.6426138610677
0.0975,3727083.2664507683,0.001301733035300118,0.0007412693701035165,1392.632157990577,97809.15758350801,1402.6426138610677
0.1,3730259.692022537,0.0013032023178417957,0.0007603851936229477,1393.9414919918872,97892.51593294389,1402.6426138610677
0.10250000000000001,3733371.9405379687,0.0013046727045157415,0.0007795087396428978,1395.224371980639,97974.19009574702,1402.6426138610677
0.105,3736357.0129547,0.0013061439731430389,0.000798637138661857,1396.4548295258548,98052.52679968771,1402.6426138610677
0.1075,3739179.458908057,0.0013076159645871966,0.0008177683400887896,1397.6182518602027,98126.59572739527,1402.6426138610677
0.11,3741816.1449185484,0.0013090885562805454,0.0008369007669264956,1398.7051032805534,98195.78979124133,1402.6426138610677
0.1125,3744256.254391863,0.0013105616622242368,0.0008560333157716117,1399.7109251479774,98259.82513333975,1402.6426138610677
0.115,3746501.2876188713,0.0013120352329882435,0.0008751653568146112,1400.6363358877468,98318.74112554664,1402.6426138610677
0.11750000000000001,3748565.0617756248,0.00131350925571136,0.0008942967338398032,1401.487030989335,98372.90036946042,1402.6426138610677
0.12,3750473.710923356,0.001314983754101202,0.0009134277642253335,1402.2737830064157,98422.98869642174,1402.6426138610677
0.1225,3752265.686008479,0.001316458788434206,0.0009325592389431846,1403.0124415568646,98470.01516751356,1402.6426138610677
0.125,3753991.7548625884,0.0013179344555556299,0.0009516924225591746,1403.723933322758,98515.31207356104,1402.6426138610677
0.1275,3755715.0022024605,0.0013194108888795535,0.0009708290532329586,1404.4342620503744,98560.53493513167,1402.6426138610677
0.13,3757510.8296300527,0.001320888258388877,0.0009899713427180276,1405.1745085501916,98607.66250253518,1402.6426138610677
0.1325,3759466.9556325027,0.0013223667706353226,0.0010091219763617098,1405.9808306968894,98658.99675582355,1402.6426138610677
0.135,3761683.41558213,0.0013238466687394335,0.0010282841131051684,1406.894463429349,98717.16290479105,1402.6426138610677
0.1375,3764206.327651058,0.0013253281048364945,0.0010474597367532141,1407.9344168233533,98783.37122010837,1402.6426138610677
0.14,3766342.353809498,0.0013268097841466404,0.0010666321280421562,1408.8148944589036,98839.42655995386,1402.6426138610677
0.14250000000000002,3768019.8982935427,0.0013282915502524414,0.0010857992772837673,1409.5063843056016,98883.45004992261,1402.6426138610677
0.145,3769412.870679758,0.0013297737306215626,0.0011049654251086075,1410.080572513998,98920.00556690266,1402.6426138610677
0.1475,3770683.1582754813,0.0013312566496333134,0.0011241347681714582,1410.6041896121933,98953.34148959182,1402.6426138610677
0.15,3771980.6261188188,0.001332740628578646,0.0011433114591513215,1411.1390105058374,98987.39069849759,1402.6426138610677
0.1525,3773443.116978647,0.001334225985660157,0.0011624996067514202,1411.7418544781306,99025.77057593715,1402.6426138610677
0.155,3775196.4513546135,0.0013357130359920868,0.0011817032756991982,1412.464585189822,99071.78300603741,1402.6426138610677
0.1575,3777354.4274771344,0.0013372020916003191,0.00120092648674632,1413.3541106792097,99128.41437473503,1402.6426138610677
0.16,3780018.8213073974,0.0013386934614223816,0.001220173216668672,1414.4523833621429,99198.33556977635,1402.6426138610677
0.1625,3783279.386537359,0.0013401874513074455,0.0012394473982663603,1415.7964000320192,99283.90198071739,1402.6426138610677
0.165,3787213.854589747,0.0013416843640163259,0.001258752920363712,1417.4182018597858,99387.15349892394,1402.6426138610677
0.1675,3791887.934618058,0.0013431844992214815,0.0012780936278092765,1419.34487439394,99509.81451757147,1402.6426138610677
0.17,3797355.3135065595,0.001344688153507015,0.0012974733214758223,1421.5985475605282,99653.29393164515,1402.6426138610677
0.17250000000000001,3803657.6558702886,0.0013461956203686723,0.0013168957582603397,1424.1963956631464,99818.68513793989,1402.6426138610677
0.17500000000000002,3810824.604055053,0.0013477071902138439,0.00133636465108404,1427.1506373829407,100006.76603506028,1402.6426138610677
0.1775,3818873.77813743,0.0013492231503615631,0.0013558836688923554,1430.4685357786054,100217.99902342065,1402.6426138610677
0.18,3827810.775924768,0.0013507437850425073,0.0013754564366549383,1434.152398286386,100452.53100524502,1402.6426138610677
0.1825,3837629.1729551833,0.0013522693753989978,0.0013950865353656633,1438.1995767200763,100710.19338456714,1402.6426138610677
0.185,3848310.522497564,0.001353800199484999,0.0014147775020426246,1442.6024672710198,100990.50206723045,1402.6426138610677
0.1875,3859824.355551569,0.0013553365322661202,0.0014345328297281378,1447.3485105081108,101292.65746088812,1402.6426138610677
0.19,3872128.1808476243,0.0013568786456196133,0.0014543559674887398,1452.4201913777918,101615.544475003,1402.6426138610677
0.1925,3885167.4848469296,0.001358426808334374,0.001474250320415188,1457.795039204055,101957.73252084771,1402.6426138610677
0.195,3898875.7317414517,0.0013599812861109426,0.0014942192496224605,1463.4456276884428,102317.47551150453,1402.6426138610677
0.1975,3913174.363453929,0.0013615423415615023,0.0015142660722497567,1469.3395749100464,102692.71186186543,1402.6426138610677
0.2,3927972.7996378695,0.0013631102342098803,0.001534394061460497,1475.439543325507,103081.06448863218,1402.6426138610677
0.2025,3943168.4376775515,0.0013646852204915476,0.0015546064464423224,1481.7032397690152,103479.84081031618,1402.6426138610677
0.20500000000000002,3958646.6526880236,0.0013662675537536185,0.0015749064124070946,1488.0834154523116,103886.03274723858,1402.6426138610677
0.20750000000000002,3974280.7975151036,0.0013678574842548518,0.001595297100590897,1494.5278659646851,104296.31672153021,1402.6426138610677
0.21,3989932.2027353803,0.0013694552591656496,0.0016157816082540328,1500.9794312729755,104707.05365713165,1402.6426138610677
0.2125,4005344.2827194897,0.001371060429208656,0.0016363541068011567,1507.3323458614536,105111.51002477563,1402.6426138610677
0.215,4019713.42692381,0.00137266839524051,0.0016569556225250084,1513.25535858483,105488.59682143282,1402.6426138610677
0.2175,4032985.6772624664,0.0013742784323997057,0.0016775768417282217,1518.7262277267835,105836.89803502434,1402.6426138610677
0.22,4045256.326465263,0.0013758907114403145,0.0016982199291089867,1523.7842332919586,106158.9144150531,1402.6426138610677
0.2225,4056615.0786176054,0.001377505369682089,0.0017188866243673462,1528.466351625754,106457.00004925962,1402.6426138610677
0.225,4067146.0491604963,0.0013791225110104637,0.0017395782422051967,1532.8072554143243,106733.3623636218,1402.6426138610677
0.2275,4076927.764890537,0.0013807422058765542,0.0017602956723262876,1536.8393136845768,106990.06212235504,1402.6426138610677
0.23,4086033.163959928,0.0013823644912971575,0.0017810393794362217,1540.5925918041746,107229.01342791224,1402.6426138610677
0.2325,4094529.5958764683,0.001383989370854752,0.0018018094032424552,1544.0948514815348,107451.98372098374,1402.6426138610677
0.23500000000000001,4102478.8215035554,0.0013856168146974975,0.0018226053584542974,1547.3715507658299,107660.5937804974,1402.6426138610677
0.23750000000000002,4109937.013060185,0.0013872467595392353,0.0018434264347829109,1550.4458440469855,107856.31772361849,1402.6426138610677
0.24,4116954.754120953,0.0013888791086594876,0.0018642713969413114,1553.3385820556823,108040.48300574983,1402.6426138610677
0.2425,4123577.039616052,0.001390513731903459,0.0018851385846443687,1556.0683118633567,108214.27042053167,1402.6426138610677
0.245,4129843.275831274,0.0013921504656820344,0.0019060259126088047,1558.6512768821976,108378.71409984173,1402.6426138610677
0.2475,4135787.2804080104,0.0013937891129717805,0.0019269308705531954,1561.1014168651502,108534.70151379525,1402.6426138610677
0.25,4141437.2823432502,0.0013954294433149456,0.0019478505231979694,1563.4303679059133,108682.97347074491,1402.6426138610677
0.2525,4146815.921989581,0.0013970711928194593,0.001968781510265409,1565.64746243894,108824.12411728087,1402.6426138610677
0.255,4151940.2510551903,0.0013987140641589326,0.0019897200464796504,1567.7597292394394,108958.60093823078,1402.6426138610677
0.2575,4156821.732603863,0.0014003577265726578,0.0020106619215666814,1569.771893423373,109086.70475665976,1402.6426138610677
0.26,4161466.2410549824,0.0014020018158656083,0.0020316025002543444,1571.686376447459,109208.5897338704,1402.6426138610677
0.2625,4165943.639329805,0.0014036466943950724,0.0020525464113313584,1573.5319760581458,109326.08926959804,1402.6426138610677
0.265,4170334.9817252206,0.001405293074575027,0.0020735027439603517,1575.3421031270163,109441.33045678123,1402.6426138610677
0.2675,4174645.225017815,0.0014069409553235412,0.00209447148947122,1577.1188008551394,109554.44337519212,1402.6426138610677
0.27,4178879.054945327,0.0014085903334886398,0.0021154526131271106,1578.8640007203983,109665.55099178049,1402.6426138610677
0.2725,4183040.9586520465,0.0014102412045858854,0.002136446063528711,1580.5795523397462,109774.77106184498,1402.6426138610677
0.275,4187135.2246888177,0.001411893562798376,0.002157451772614253,1582.2672234692066,109882.21612903306,1402.6426138610677
0.2775,4191165.9430130366,0.001413547400976747,0.002178469655659508,1583.9287000038714,109987.99352534105,1402.6426138610677
0.28,4195137.004988653,0.0014152027106391703,0.0021994996112777903,1585.5655859779029,110092.20537111416,1402.6426138610677
0.28250000000000003,4199052.103386168,0.0014168594819713545,0.002220541521419956,1587.179403564533,110194.94857504645,1402.6426138610677
0.28500000000000003,4202914.732382637,0.0014185177038265448,0.002241595251374404,1588.7715930760621,110296.31483418077,1402.6426138610677
0.28750000000000003,4206728.1875616675,0.0014201773637255227,0.0022626606497670727,1590.343512963861,110396.3906339089,1402.6426138610677
0.29,4210495.56591342,0.0014218384478566072,0.0022837375485614446,1591.8964398183703,110495.25724797149,1402.6426138610677
0.2925,4214219.765834608,0.0014235009410756532,0.002304825763058544,1593.431568369099,110592.99073845796,1402.6426138610677
0.295,4217903.487128498,0.0014251648269060526,0.002325925091896936,1594.9500114846273,110689.66195580666,1402.6426138610677
0.2975,4221549.231004908,0.001426830087538734,0.002347035317052729,1596.452800172603,110785.33653880477,1402.6426138610677
0.3,4225159.300080209,0.0014284967038321623,0.0023681562038395717,1597.9408835797449,110880.07491458829,1402.6426138610677
0.3025,4228735.798377327,0.0014301646553123396,0.002389287500908656,1599.4151289918407,110973.93229864213,1402.6426138610677
0.305,4232280.631325738,0.0014318339201728042,0.002410428940248715,1600.8763218337476,111066.95869480004,1402.6426138610677
0.3075,4235795.505761473,0.0014335044752746312,0.0024315802371860235,1602.3251656693933,111159.19889524463,1402.6426138610677
0.31,4239287.571639269,0.0014351762804138085,0.002452740893608005,1603.7646077357365,111250.84053491708,1402.6426138610677
0.3125,4242791.858032279,0.0014368492215087096,0.0024739094889119893,1605.2090871422354,111342.80287531255,1402.6426138610677
0.315,4246306.304880138,0.0014385232964269428,0.0024950860052664198,1606.6577547246263,111435.0318546475,1402.6426138610677
0.3175,4249821.9509952525,0.0014401985230361792,0.0025162706752849453,1608.1069166492769,111527.29230613148,1402.6426138610677
0.32,4253330.446433332,0.0014418749175651381,0.002537463711181924,1609.5531310392334,111619.36510371909,1402.6426138610677
0.3225,4256824.052493384,0.0014435524946035862,0.002558665304772423,1610.9932079742211,111711.04716210996,1402.6426138610677
0.325,4260295.641717721,0.0014452312671023378,0.002579875627472219,1612.4242094906442,111802.15143674874,1402.6426138610677
0.3275,4263738.697891955,0.0014469112463732544,0.002601094830297797,1613.8434495815857,111892.50692382517,1402.6426138610677
0.33,4267147.316044999,0.0014485924420892457,0.0026223230438663526,1615.2484941968064,111981.95866027391,1402.6426138610677
0.3325,4270516.2024490675,0.0014502748622842688,0.0026435603783957896,1616.6371612427467,112070.36772377473,1402.6426138610677
0.335,4273840.6746196775,0.0014519585133533283,0.002664806923704722,1618.0075205825265,112157.61123275242,1402.6426138610677
0.3375,4277116.661315646,0.001453643400052476,0.0026860627492124715,1619.3578940359434,112243.58234637677,1402.6426138610677
0.34,4280340.702539091,0.0014553295254988124,0.00270732790393907,1620.6868553794736,112328.1902645626,1402.6426138610677
0.3425,4283509.949535433,0.0014570168911704844,0.0027286024165052588,1621.993230346273,112411.3602279698,1402.6426138610677
0.34500000000000003,4286622.164793394,0.001458705496906687,0.002749886295132488,1623.2760966261765,112493.03351800324,1402.6426138610677
0.34750000000000003,4289675.722044993,0.001460395340907663,0.002771179527642917,1624.5347838656949,112573.16745681282,1402.6426138610677
0.35000000000000003,4292669.606265558,0.0014620864197347025,0.0027924820814594145,1625.7688736680223,112651.73540729354,1402.6426138610677
0.3525,4295603.413673712,0.001463778728310143,0.0028137939036055573,1626.978199593028,112728.72677308533,1402.6426138610677
0.355,4298477.351731382,0.0014654722599173704,0.0028351149207056343,1628.162847157262,112804.14699857324,1402.6426138610677
0.3575,4301292.239143795,0.0014671670062008171,0.002856445038984641,1629.3231538339521,112878.01756888726,1402.6426138610677
0.36,4304049.50585948,0.001468862957165964,0.002877784144268282,1630.459709053005,112950.37600990245,1402.6426138610677
0.3625,4306751.193070267,0.001470560101179339,0.0028991321019829733,1631.5733542010064,113021.27588823892,1402.6426138610677
0.365,4309399.953211289,0.001472258424968518,0.002920488757155838,1632.6651826212214,113090.78681126179,1402.6426138610677
0.3675,4311999.049960977,0.0014739579136221243,0.0029418539344147096,1633.7365396135926,113158.9944270812,1402.6426138610677
0.37,4314552.358241066,0.0014756585505898286,0.00296322743798813,1634.7890224347423,113226.00042455233,1402.6426138610677
0.3725,4317064.364216591,0.0014773603176823497,0.0029846090517053514,1635.8244802979711,113291.92253327538,1402.6426138610677
0.375,4319540.165295889,0.0014790631950714534,0.003005998538996334,1636.8450143732587,113356.89452359559,1402.6426138610677
0.3775,4321985.470130597,0.0014807671612899534,0.0030273956428917476,1637.8529777872632,113421.06620660322,1402.6426138610677
0.38,4324406.598615656,0.0014824721932317113,0.003048800086022972,1638.850975623322,113484.60343413356,1402.6426138610677
0.3825,4326810.481889304,0.0014841782661516357,0.003070211570622096,1639.841864921451,113547.6880987669,1402.6426138610677
0.385,4329204.662333085,0.001485885353665683,0.0030916297785219156,1640.8287546783447,113610.51813382865,1402.6426138610677
0.3875,4331597.293571841,0.0014875934277508575,0.0031130543711559394,1641.8150058473766,113673.30751338914,1402.6426138610677
0.39,4333997.140473717,0.0014893024587452105,0.003134484989558382,1642.8042313385993,113736.28625226379,1402.6426138610677
