Time,Thrust,Chamber Pressure,Exit Pressure,Exit Velocity,Free Volume,Regressed Length
0.0,-115.39802230598374,101325.0,2659.053255224573,1402.6426138610677,0.0012451612507289554,0.0
0.0025,45.75536429160937,492280.8123851896,12918.834410633463,1402.6426138610677,0.0012461145354759236,1.257933117101516e-05
0.005,155.76038016469022,759151.4084992914,19922.270160161464,1402.6426138610677,0.001246936016319878,2.341688493706447e-05
0.0075,242.05350412978697,968497.2937785907,25416.095550931666,1402.6426138610677,0.0012477164034759348,3.3710167492603114e-05
0.01,424.36062655599335,1410771.7669159009,37022.62283934516,1402.6426138610677,0.0012491231640082176,5.225992756349573e-05
0.0125,578.1653599388687,1783899.8516426515,46814.554231483104,1402.6426138610677,0.0012505515277179092,7.108761087533735e-05
0.015,656.4311445079873,1973771.5262888046,51797.32151046454,1402.6426138610677,0.0012516884397812868,8.606859894666183e-05
0.0175,714.1975724684269,2113912.0548168076,55475.00350968762,1402.6426138610677,0.00125277785588349,0.00010041958367761967
0.02,764.4745007090186,2235883.164078162,58675.868795892966,1402.6426138610677,0.001253878248358154,0.00011491103315034263
0.0225,812.4051796962991,2352162.3061878933,61727.360839728164,1402.6426138610677,0.0012550119910639753,0.0001298373938569406
0.025,859.3788857600705,2466119.8456640085,64717.92749456505,1402.6426138610677,0.0012561854457001594,0.0001452819771462364
0.0275,904.9820025343463,2576752.35511479,67621.23600074579,1402.6426138610677,0.0012573959616621216,0.00016120943298267025
0.03,947.3161380552134,2679454.362771094,70316.42581349282,1402.6426138610677,0.001258630123769369,0.00017744296513318421
0.0325,984.7989062159774,2770387.0225564516,72702.75480444753,1402.6426138610677,0.001259875435908698,0.00019381800118199057
0.035,1016.3690846225489,2846975.824111745,74712.66057389586,1402.6426138610677,0.0012611215727294858,0.0002101986618333953
0.0375,1041.486614593444,2907910.5927952062,76311.76045076843,1402.6426138610677,0.0012623603796436899,0.00022647776091179824
0.04,1060.1326011597841,2953145.4896824164,77498.85149264046,1402.6426138610677,0.0012635858728258483,0.00024257680536169315
0.0425,1073.0340331625061,2984444.1793100266,78320.21722211059,1402.6426138610677,0.0012647954216963586,0.0002584614996774588
0.045,1082.4858547284937,3007374.1633262965,78921.96455633915,1402.6426138610677,0.0012659957823190039,0.00027422071073998064
0.0475,1087.7212570631868,3020075.1745562637,79255.27484753766,1402.6426138610677,0.0012671806122083672,0.0002897714056084593
0.05,1089.1258667703353,3023482.7376285414,79344.69889569678,1402.6426138610677,0.001268349715091024,0.0003051111396185484
0.0525,1089.2806671713834,3023858.2811887916,79354.55421596683,1402.6426138610677,0.0012695141610004593,0.0003203852145555251
0.055,1091.8733655262374,3030148.130338055,79519.61756514246,1402.6426138610677,0.0012706911841797795,0.00033581974146937955
0.0575,1094.346228264408,3036147.259994154,79677.05161636934,1402.6426138610677,0.0012718691918978061,0.00035126263744714376
0.06,1095.8394811494884,3039769.8701490434,79772.11910538752,1402.6426138610677,0.0012730440797334834,0.0003666601133315658
0.0625,1096.5448674936497,3041481.127337299,79817.02731162446,1402.6426138610677,0.0012742164192792234,0.0003820196957100709
0.065,1096.9702620397577,3042513.1284256363,79844.10992552369,1402.6426138610677,0.001275388044679644,0.00039736543735837006
0.0675,1097.7023043370634,3044289.0525752045,79890.71517487914,1402.6426138610677,0.0012765611151472765,0.00041272563350075193
0.07,1098.3992806623264,3045979.907177826,79935.08795983065,1402.6426138610677,0.0012777342644696551,0.000428082395339397
0.0725,1098.880654325535,3047147.712804092,79965.73446712887,1402.6426138610677,0.0012789068730473072,0.000443427633433287
0.075,1099.1070672522867,3047696.9873280823,79980.14897698358,1402.6426138610677,0.0012800788128484069,0.0004587596892751299
0.0775,1099.1402396782696,3047777.463159355,79982.26088935578,1402.6426138610677,0.0012812502825130497,0.00047408117358442613
0.08,1099.1429701492596,3047784.0872429474,79982.43472395769,1402.6426138610677,0.0012824218073532526,0.0004893989663074688
0.0825,1099.3675141609597,3048328.827805736,79996.73024990624,1402.6426138610677,0.0012835942003492206,0.0005047237057921153
0.085,1099.7847689528164,3049341.0819666074,80023.2946488362,1402.6426138610677,0.0012847673454316384,0.0005200538711332018
0.08750000000000001,1100.1967741283288,3050340.600633265,80049.52483254441,1402.6426138610677,0.0012859406135667046,0.0005353812562263187
0.09,1100.4978964426277,3051071.119063561,80068.69569274751,1402.6426138610677,0.0012871136803773325,0.0005507016414863917
0.0925,1100.637042652893,3051408.6857807296,80077.5543937408,1402.6426138610677,0.0012882863897764358,0.0005660130019217167
0.095,1100.617659518351,3051361.662573391,80076.32037239813,1402.6426138610677,0.0012894587539669293,0.0005813155071339592
0.0975,1100.4977338002805,3051070.7244955506,80068.68533817212,1402.6426138610677,0.0012906309534417289,0.0005966115213181548
0.1,1100.389792262007,3050808.859866598,80061.81327309397,1402.6426138610677,0.001291803336983751,0.0006119056032627085
0.10250000000000001,1100.4609016689053,3050981.370271307,80066.34043177347,1402.6426138610677,0.0012929764216659133,0.0006272045063493956
0.105,1100.9036730939554,3052055.5274195746,80094.52933936512,1402.6426138610677,0.0012941507800751859,0.0006425156917291587
0.1075,1101.6072123426648,3053762.3035806674,80139.31995083409,1402.6426138610677,0.0012953260325313186,0.0006578341966294093
0.11,1102.3011760039024,3055445.8495034245,80183.5009354502,1402.6426138610677,0.0012965013756349065,0.0006731495826254537
0.1125,1102.7920784270757,3056636.7717651636,80214.75408834235,1402.6426138610677,0.0012976762386933724,0.0006884544392768347
0.115,1102.9667565581149,3057060.538414243,80225.87491822333,1402.6426138610677,0.0012988502912434532,0.0007037444798984094
0.11750000000000001,1102.7923699394692,3056637.478970063,80214.77264738987,1402.6426138610677,0.0013000234430512005,0.0007190185415603486
0.12,1102.3164007101095,3055482.784423064,80184.47021172258,1402.6426138610677,0.0013011958441119795,0.0007342785850881375
0.1225,1101.6666536055272,3053906.507234728,80143.104260686,1402.6426138610677,0.0013023678846504699,0.0007495296950625754
0.125,1101.0512559577344,3052413.561337577,80103.92515732856,1402.6426138610677,0.001303540195120665,0.0007647800798197752
0.1275,1100.7586576952638,3051703.722135176,80085.29697828261,1402.6426138610677,0.0013047136462058732,0.0007800410714511644
0.13,1101.15422867008,3052663.3716658526,80110.48088362107,1402.6426138610677,0.0013058893387539858,0.0007953269942830298
0.1325,1102.1686502572893,3055124.3439364433,80175.06372425401,1402.6426138610677,0.0013070670550110422,0.0008106349829673408
0.135,1103.2505298414917,3057748.9683435056,80243.94125766966,1402.6426138610677,0.0013082450567483467,0.0008259424562808929
0.1375,1104.0491081200375,3059686.3078325083,80294.78249995643,1402.6426138610677,0.0013094222192594795,0.0008412348406599316
0.14,1104.3603192798164,3060441.3016577293,80314.59566342673,1402.6426138610677,0.001310597896755531,0.0008565037738611319
0.14250000000000002,1104.1267909972569,3059874.765382256,80299.72815661697,1402.6426138610677,0.001311771922365102,0.000871747104961599
0.145,1103.437844438327,3058203.390877983,80255.86658428748,1402.6426138610677,0.001312944608134302,0.0008869688943588677
0.1475,1102.5294942585335,3055999.746325616,80198.03674742262,1402.6426138610677,0.0013141167450267507,0.0009021794137709034
0.15,1101.784448602923,3054192.276214667,80150.60364323077,1402.6426138610677,0.0013152896029235777,0.0009173951462361007
0.1525,1101.7321091060805,3054065.3013434596,80147.27146514427,1402.6426138610677,0.0013164649306234226,0.0009326387861132845
0.155,1102.7240361460065,3056471.7021638746,80210.4221972923,1402.6426138610677,0.0013176438785562033,0.0009479252436530851
0.1575,1103.960892878573,3059472.29891765,80289.16630354192,1402.6426138610677,0.001318823749947252,0.0009632195162920042
0.16,1104.9726723087754,3061926.861353108,80353.58093205569,1402.6426138610677,0.001320002933891627,0.0009785007674851546
0.1625,1105.492535772639,3063188.042685597,80386.67788076117,1402.6426138610677,0.001321180518570502,0.0009937572147759948
0.165,1105.4182102164743,3063007.729948739,80381.94596692054,1402.6426138610677,0.001322356163951646,0.0010089844734021327
0.1675,1104.8119881968753,3061537.043994432,80343.35102713063,1402.6426138610677,0.0013235301017894242,0.0010241855562953264
0.17,1103.9007278807196,3059326.339492847,80285.3359173228,1402.6426138610677,0.0013247031356247972,0.001039370874081484
0.17250000000000001,1103.0758530451706,3057325.2049324326,80232.82051276308,1402.6426138610677,0.0013258766407853219,0.0010545582350806636
0.17500000000000002,1102.893353077673,3056882.462619909,80221.20170805209,1402.6426138610677,0.0013270525643851508,0.0010697728453070731
0.1775,1103.816880068948,3059122.925899996,80279.99777198622,1402.6426138610677,0.0013282325150738472,0.0010850355152916904
0.18,1105.026971428689,3062058.590241876,80357.03786894673,1402.6426138610677,0.0013294135768593402,0.0011003084850161374
0.1825,1106.03246369152,3064497.9000991597,80421.05222686937,1402.6426138610677,0.0013305940320343676,0.0011155695793701745
0.185,1106.5806846696821,3065827.8763559987,80455.95454806472,1402.6426138610677,0.0013317730047373562,0.0011308075078253824
0.1875,1106.5747169101148,3065813.398656591,80455.57461247391,1402.6426138610677,0.001332950165707582,0.0011460180350028179
0.19,1106.073397694457,3064597.2054051813,80423.65827766866,1402.6426138610677,0.0013341257322851715,0.0011612039806730148
0.1925,1105.2913190390466,3062699.8937660614,80373.86747885121,1402.6426138610677,0.0013353004684111005,0.0011763752197559835
0.195,1104.5988276949195,3061019.919663569,80329.78022885442,1402.6426138610677,0.0013364756846271943,0.001191548682321211
0.1975,1104.5220251478117,3060833.597782089,80324.89061814167,1402.6426138610677,0.0013376532380761279,0.0012067483535876612
0.2,1105.4060157890583,3062978.146442133,80381.16961242224,1402.6426138610677,0.001338834320026551,0.001221989605281095
0.2025,1106.465893739314,3065549.3951997287,80448.64641853007,1402.6426138610677,0.001340016114278654,0.0012372360655140623
0.20500000000000002,1107.3281073706582,3067641.113145027,80503.53898612403,1402.6426138610677,0.0013411973453417068,0.0012524713132941547
0.20750000000000002,1107.7938272760925,3068770.9429786853,80533.18890171286,1402.6426138610677,0.0013423773452078814,0.0012676867598272383
0.21,1107.7932611460544,3068769.5695553045,80533.15285921682,1402.6426138610677,0.0013435558863121495,0.0012828794880567177
0.2125,1107.3856537684173,3067780.7198834307,80507.20265996763,1402.6426138610677,0.0013447331815322832,0.0012980522526635366
0.215,1106.7592870284907,3066261.1631255546,80467.32521270853,1402.6426138610677,0.0013459098841888551,0.0013132134800661768
0.2175,1106.2314799090202,3064980.7105981098,80433.72253359416,1402.6426138610677,0.001347087088045238,0.0013283772684206591
0.22,1106.2485884901878,3065022.215771475,80434.81174619071,1402.6426138610677,0.0013482663273076052,0.0013435633876205423
0.2225,1107.03372940836,3066926.956416282,80484.79750303189,1402.6426138610677,0.0013494483346552701,0.0013587812665572278
0.225,1107.9428927701472,3069132.5737365433,80542.67911088011,1402.6426138610677,0.0013506308546201568,0.001374001847970456
0.2275,1108.6890142598613,3070942.6538056494,80590.1807077217,1402.6426138610677,0.0013518129434275492,0.0013892130149802972
0.23,1109.1074582571314,3071957.792961855,80616.82081705122,1402.6426138610677,0.001352994067421135,0.0014044079235522383
0.2325,1109.1369180167865,3072029.2619176856,80618.69636365521,1402.6426138610677,0.0013541740344323206,0.0014195841168961416
0.23500000000000001,1108.8194156688573,3071259.0057599368,80598.48267361209,1402.6426138610677,0.0013553529937802313,0.0014347435254662456
0.23750000000000002,1108.3003022185746,3069999.6439496754,80565.43347429227,1402.6426138610677,0.0013565314362717117,0.0014498924669611648
0.24,1107.8282575463704,3068854.4703222383,80535.38089435807,1402.6426138610677,0.0013577101942013256,0.0014650416463238896
0.2425,1107.7552904078766,3068677.453087233,80530.73546376372,1402.6426138610677,0.0013588904413513556,0.001480206155741787
0.245,1108.3740265882182,3070178.4982166267,80570.12711377659,1402.6426138610677,0.0013600731327509169,0.0014953982659867938
0.2475,1109.2095818684504,3072205.5433831764,80623.32248558612,1402.6426138610677,0.001361256629851102,0.0015105969077025996
0.25,1109.9588488747281,3074023.2544305045,80671.02434077936,1402.6426138610677,0.0013624399482894442,0.0015257894657597201
0.2525,1110.4486330628426,3075211.463869974,80702.20630157788,1402.6426138610677,0.0013636225369722255,0.001540968887950486
0.255,1110.5938256494337,3075563.699009685,80711.44994327394,1402.6426138610677,0.0013648041303886054,0.0015561317824164713
0.2575,1110.3974036119912,3075087.181954474,80698.94479423048,1402.6426138610677,0.0013659847486106218,0.0015712784176484956
0.26,1109.9504296888538,3074002.8296059165,80670.48833588118,1402.6426138610677,0.0013671646972931906,0.0015864127224866223
0.2625,1109.43205237921,3072745.253662322,80637.48600273037,1402.6426138610677,0.0013683445676741048,0.0016015422861201595
0.265,1109.1095059430975,3071962.7606187398,80616.95118235308,1402.6426138610677,0.0013695252365740367,0.001616678358087659
0.2675,1109.3378578012087,3072516.7389624924,80631.48913368078,1402.6426138610677,0.0013707078655301212,0.0016318358371446532
0.27,1110.0993554709871,3074364.1214246503,80679.96965033161,1402.6426138610677,0.001371892349153496,0.0016470133555734662
0.2725,1110.9370782040828,3076396.4248008667,80733.30301236598,1402.6426138610677,0.0013730771664796334,0.001662191424413132
0.275,1111.6246911323217,3078064.5639361455,80777.07967950469,1402.6426138610677,0.001374261596572671,0.0016773608364312742
0.2775,1112.018728753797,3079020.4935735343,80802.16596437087,1402.6426138610677,0.0013754451866369029,0.0016925158129202317
0.28,1112.058594932871,3079117.2083541276,80804.70403248993,1402.6426138610677,0.0013766277520167807,0.0017076540036970562
0.28250000000000003,1111.7665629001742,3078408.742817064,80786.11190228965,1402.6426138610677,0.001377809376196913,0.0017227764871035143
0.28500000000000003,1111.2477752526052,3077150.171399528,80753.0834451001,1402.6426138610677,0.0013789904108020648,0.0017378877700060863
0.28750000000000003,1110.6902439533305,3075797.6084367502,80717.5883851537,1402.6426138610677,0.0013801714755971584,0.0017529957877959667
0.29,1110.364850331785,3075008.208162005,80696.8722995851,1402.6426138610677,0.0013813534584872728,0.0017681119043890634
0.2925,1110.624859343498,3075638.986307894,80713.42569393152,1402.6426138610677,0.0013825375138636757,0.0017832508910241435
0.295,1111.4308458170474,3077594.2979720836,80764.73857669136,1402.6426138610677,0.0013837234675422988,0.0017984105015519387
0.2975,1112.3167668329172,3079743.529693371,80821.14046768296,1402.6426138610677,0.0013849097635669461,0.0018135708469107152
0.3,1113.0496144315132,3081521.4074923596,80867.7969862992,1402.6426138610677,0.001386095648580569,0.0018287223285472617
0.3025,1113.4793019935466,3082563.8233759683,80895.1529137466,1402.6426138610677,0.001387280641766714,0.0018438588242950847
0.305,1113.5386642400342,3082707.8353374326,80898.93219304513,1402.6426138610677,0.0013884645348495237,0.0018589776883744062
0.3075,1113.243457232297,3081991.6673563034,80880.13792902825,1402.6426138610677,0.0013896473920937346,0.0018740797513921662
0.31,1112.6923583719613,3080654.709398447,80845.05238834297,1402.6426138610677,0.0013908295503046793,0.0018891693203420207
0.3125,1112.0669664009583,3079137.517416047,80805.23699944979,1402.6426138610677,0.001392011618828286,0.0019042541786043424
0.315,1111.631801401526,3078081.8133476013,80777.5323526227,1402.6426138610677,0.0013931944795510774,0.0019193455859462213
0.3175,1111.7343047962047,3078330.4851179253,80784.05819994926,1402.6426138610677,0.0013943792869001716,0.0019344582785214635
0.32,1112.5164638034548,3080227.99168946,80833.85411434204,1402.6426138610677,0.001395566486009786,0.0019495979255142373
0.3225,1113.4495972218692,3082491.760024474,80893.26176852702,1402.6426138610677,0.001396754270059564,0.001964741468620009
0.325,1114.2688431312351,3084479.2388904262,80945.41880921985,1402.6426138610677,0.0013979417589711576,0.0019798777172540588
0.3275,1114.8033961168862,3085776.0567928012,80979.450961845,1402.6426138610677,0.0013991283900916063,0.0019949995225744827
0.33,1114.965436689612,3086169.1649060524,80989.7672254344,1402.6426138610677,0.0014003138800557468,0.0020101032896931727
0.3325,1114.7501312856582,3085646.837073602,80976.05987262737,1402.6426138610677,0.0014014982247862128,0.0020251889776758143
0.335,1114.235632266726,3084398.6698078383,80943.30444967061,1402.6426138610677,0.0014026816994934346,0.002040260099541889
0.3375,1113.5830779199725,3082815.5822901204,80901.75977641827,1402.6426138610677,0.0014038648586756405,0.002055323722264672
0.34,1113.03659245801,3081489.816370775,80866.9679463319,1402.6426138610677,0.0014050485361188554,0.0020703904667712355
0.3425,1112.9232860189072,3081214.936569096,80859.75432648044,1402.6426138610677,0.0014062338448969016,0.002085474507942444
0.34500000000000003,1113.5546614945663,3082746.6444482654,80899.95065337073,1402.6426138610677,0.0014074218333519442,0.0021005891895425734
0.34750000000000003,1114.4839749782925,3085001.1456763283,80959.1151125801,1402.6426138610677,0.001408610925818646,0.002115714436277144
0.35000000000000003,1115.3668913037702,3087143.0880616726,81015.32571087522,1402.6426138610677,0.0014097999473092623,0.0021308353245551312
0.3525,1116.01304025737,3088710.6361871567,81056.46258672806,1402.6426138610677,0.001410988258124883,0.0021459437441553437
0.355,1116.3118096600704,3089435.446487546,81075.4836495326,1402.6426138610677,0.0014121754911706004,0.002161035045611227
0.3575,1116.2323453674567,3089242.667249515,81070.42457960489,1402.6426138610677,0.0014133615519555068,0.0021761080402108654
0.36,1115.8235512697215,3088250.9386116466,81044.398828183,1402.6426138610677,0.001414546618592697,0.002191164999996978
0.3625,1115.2140892916643,3086772.3925644313,81005.59761742703,1402.6426138610677,0.001415731141799267,0.0022062116577669217
0.365,1114.6123793926924,3085312.652950269,80967.28994041921,1402.6426138610677,0.001416915844896313,0.002221257207072691
0.3675,1114.3065995668185,3084570.835463467,80947.8225611637,1402.6426138610677,0.001418101723808934,0.0022363143022209164
0.37,1114.6601947917995,3085428.6524250377,80970.33409320468,1402.6426138610677,0.0014192900310492022,0.002251398854545522
0.3725,1115.5173335162203,3087508.05871868,81024.90356839879,1402.6426138610677,0.0014204801794048924,0.0022665033883427894
0.375,1116.415909662845,3089687.9916062886,81082.1111444261,1402.6426138610677,0.0014216705555982704,0.002281607431618147
0.3775,1117.1510963818282,3091471.544077901,81128.91658242763,1402.6426138610677,0.0014228604687003337,0.0022967022438249267
0.38,1117.5912141082008,3092539.263391109,81156.9365431032,1402.6426138610677,0.0014240494780814674,0.002311782254640408
0.3825,1117.6777305618689,3092749.1510710553,81162.44458671132,1402.6426138610677,0.0014252373934114443,0.00232684506396582
0.385,1117.4252607476142,3092136.662910436,81146.37117306926,1402.6426138610677,0.001426424274659425,0.002341891441926342
0.3875,1116.921566955093,3090914.7089694985,81114.30366155301,1402.6426138610677,0.0014276104320939578,0.0023569253288711
0.39,1116.3275587588394,3089473.653576044,81076.48631109731,1402.6426138610677,0.0014287964262829787,0.0023719538353731695
