Time,Thrust,Chamber Pressure,Exit Pressure,Exit Velocity,Free Volume,Regressed Length
0.0,-106.2265518138158,101325.0,2659.053255224573,1744.3955852072886,0.0007461785375992363,0.0
0.0025,252.42130016100458,814741.2050866229,21381.102921797938,1744.3955852072886,0.0007472724207316332,1.4434362913520522e-05
0.005,661.0049662542162,1627488.8820058298,42709.89005220235,1744.3955852072886,0.0007488397838943377,3.510933792876355e-05
0.0075,937.0534755709433,2176599.8800284388,57120.108525152085,1744.3955852072886,0.0007503170235383207,5.4587753251831675e-05
0.01,1140.3208536768425,2580935.890150143,67731.02373777122,1744.3955852072886,0.0007517895885521125,7.399706499428254e-05
0.0125,1290.2459308730338,2879164.302872199,75557.37687519082,1744.3955852072886,0.0007532588311020246,9.33551992266611e-05
0.015,1400.8644336637137,3099204.746551844,81331.85758624355,1744.3955852072886,0.0007547249939847776,0.00011266541498860685
0.0175,1486.3969681919982,3269344.608978493,85796.8065625973,1744.3955852072886,0.0007562023895675442,0.0001321160952851939
0.02,1551.1420240774098,3398134.372568474,89176.61253460363,1744.3955852072886,0.0007576831160032488,0.00015160325350406956
0.0225,1593.3410099720418,3482075.877333337,91379.4739359701,1744.3955852072886,0.0007591439678164497,0.00017082179504023505
0.025,1623.1754386703792,3541422.015294843,92936.88367030564,1744.3955852072886,0.0007606003088321266,0.00018997387307537384
0.0275,1649.5305894681949,3593847.232853328,94312.6689691435,1744.3955852072886,0.0007620726175465754,0.00020932831734235007
0.03,1676.6356575481777,3647764.173110351,95727.6012711636,1744.3955852072886,0.0007635689722065392,0.00022899115325385235
0.0325,1704.105185579986,3702406.0909025953,97161.55902470104,1744.3955852072886,0.000765085065636524,0.00024890580885909396
0.035,1726.9390637202457,3747826.8528018696,98353.52768774614,1744.3955852072886,0.0007666042052387984,0.00026885311484381306
0.0375,1735.5225296125516,3764900.9371151063,98801.59972794443,1744.3955852072886,0.0007680973129933945,0.00028845130453027237
0.04,1730.7454752691085,3755398.501892294,98552.22907596534,1744.3955852072886,0.0007695587702519961,0.00030762673814516736
0.0425,1726.707388413133,3747366.0082227015,98341.43382859598,1744.3955852072886,0.0007710189340464774,0.00032677816025692536
0.045,1723.4872102086072,3740960.4845266156,98173.33485365895,1744.3955852072886,0.0007724783758227871,0.0003459131038978853
0.0475,1721.0349827849607,3736082.5554578803,98045.32426230464,1744.3955852072886,0.0007739374353627845,0.0003650360536125879
0.05,1719.2691150607016,3732569.921425391,97953.14285634852,1744.3955852072886,0.0007753964413926639,0.0003841513427159543
0.0525,1718.0763827434207,3730197.358593094,97890.88012827112,1744.3955852072886,0.0007768557115829546,0.00040326315329328595
0.055,1717.3119283297892,3728676.7188799838,97850.97426121787,1744.3955852072886,0.0007783155525485211,0.00042237551620026505
0.0575,1716.5149872122508,3727091.4571681926,97809.37253099214,1744.3955852072886,0.0007797761170636709,0.00044149044027676004
0.06,1715.5631168934697,3725198.0129252668,97759.68322353852,1744.3955852072886,0.0007812372100511571,0.0004606053877702578
0.0625,1714.7991162354767,3723678.275815152,97719.80104332895,1744.3955852072886,0.0007826986692963602,0.00047971825670227594
0.065,1714.4619304936466,3723007.5516744074,97702.19935361955,1744.3955852072886,0.0007841603978057182,0.0004988277959746332
0.0675,1714.6861767830374,3723453.61857792,97713.90540495765,1744.3955852072886,0.0007856223637330566,0.0005179336043993569
0.07,1715.502144078389,3725076.726838904,97756.5003351817,1744.3955852072886,0.0007870846003795889,0.0005370361306986831
0.0725,1716.8357932141246,3727729.5990089024,97826.1191694213,1744.3955852072886,0.0007885472061939163,0.0005561366735050567
0.075,1718.5087568843514,3731057.4298777874,97913.4508200973,1744.3955852072886,0.0007900103447720278,0.0005752373813611311
0.0775,1720.2383396428588,3734497.8864737577,98003.73808692161,1744.3955852072886,0.0007914742448573,0.0005943412527197687
0.08,1721.6375179031174,3737281.10806334,98076.77765689735,1744.3955852072886,0.0007929392003404973,0.0006134521359440404
0.0825,1722.2704608283016,3738540.147361177,98109.8183925832,1744.3955852072886,0.0007944055288469534,0.0006325741882996143
0.085,1722.6901611373776,3739375.0080751786,98131.72748806038,1744.3955852072886,0.0007958727856878079,0.0006517016102665139
0.08750000000000001,1723.190637709197,3740370.5475566955,98157.85324674808,1744.3955852072886,0.0007973406932194167,0.0006708307903660739
0.09,1723.763816288996,3741510.7046355275,98187.77417832405,1744.3955852072886,0.0007988092150711401,0.0006899612684135561
0.0925,1724.402343743174,3742780.852583424,98221.1064362611,1744.3955852072886,0.0008002783354857685,0.0007090928518953279
0.095,1725.099588059294,3744167.799114083,98257.50381782706,1744.3955852072886,0.0008017480593195215,0.0007282256159688608
0.0975,1725.8496383460827,3745659.7863831506,98296.65776408483,1744.3955852072886,0.0008032184120420487,0.0007473599034627313
0.1,1726.6473048334292,3747246.4909882215,98338.29735989231,1744.3955852072886,0.0008046894397364288,0.000766496324876621
0.10250000000000001,1727.4881188723855,3748919.02396884,98382.18933390253,1744.3955852072886,0.0008061612090991706,0.0007856357583813158
0.105,1728.3683329351682,3750669.930806498,98428.13805856346,1744.3955852072886,0.0008076338074402123,0.0008047793498187066
0.1075,1729.2870357948855,3752497.3989041685,98476.09596622622,1744.3955852072886,0.0008091073412097265,0.0008239284927810052
0.11,1730.273615455328,3754459.88637898,98527.59716245849,1744.3955852072886,0.0008105818598118176,0.000843083828102866
0.1125,1731.3215635456647,3756544.446890409,98582.30189883776,1744.3955852072886,0.0008120573237059951,0.0008622448528859272
0.115,1732.4124888432846,3758714.4969313494,98639.2501211458,1744.3955852072886,0.0008135337018418948,0.0008814111783305645
0.11750000000000001,1733.5321255814395,3760941.6592813027,98697.69713122777,1744.3955852072886,0.0008150109784076328,0.0009005826116500948
0.12,1734.6703334492415,3763205.7630063803,98757.11358699224,1744.3955852072886,0.0008164891528298053,0.0009197591560707756
0.1225,1735.8210975916663,3765494.843459303,98817.18550241108,1744.3955852072886,0.0008179682397734888,0.0009389410108318059
0.125,1736.982528609549,3767805.1422794,98877.81424751961,1744.3955852072886,0.0008194482691422396,0.0009581285711853255
0.1275,1738.1568625595876,3770141.10739261,98939.11654841644,1744.3955852072886,0.0008209292860780947,0.000977322428396415
0.13,1739.350460954341,3772515.39301148,99001.4244872636,1744.3955852072886,0.0008224113509615709,0.000996523369743096
0.1325,1740.57381076223,3774948.8596351673,99065.28550228651,1744.3955852072886,0.0008238945394116652,0.001015732378516331
0.135,1741.8415244075375,3777470.574049437,99131.4623877739,1744.3955852072886,0.000825378942285855,0.0010349506340200237
0.1375,1743.1723397704075,3780117.809326664,99200.93329407794,1744.3955852072886,0.0008268646656800977,0.0010541795115710188
0.14,1744.5891201868444,3782936.044825832,99274.8917276141,1744.3955852072886,0.0008283518309288309,0.0010734205824991015
0.14250000000000002,1746.118854448717,3785978.9661925337,99354.7465508613,1744.3955852072886,0.0008298405746049723,0.0010926756141469984
0.145,1747.7926568037526,3789308.465358971,99442.12198236174,1744.3955852072886,0.00083133104851992,0.001111946569870377
0.1475,1749.6457669555425,3792994.640543955,99538.85759672106,1744.3955852072886,0.000832823419723552,0.0011312356090378455
0.15,1751.7175500635383,3797115.796252906,99647.0083246083,1744.3955852072886,0.0008343178705042268,0.0011505450870309536
0.1525,1754.005431086553,3801666.810257707,99766.43974433727,1744.3955852072886,0.0008358143476657548,0.0011698743258298436
0.155,1756.2980360253105,3806227.220995329,99886.11776078962,1744.3955852072886,0.0008373116890746713,0.0011892083618942285
0.1575,1758.8328780858246,3811269.485694109,100018.44098172223,1744.3955852072886,0.0008388112783897446,0.0012085650140936848
0.16,1761.888383300922,3817347.4446813827,100177.94373652343,1744.3955852072886,0.00084031481603257,0.0012279661705943514
0.1625,1765.6870637751413,3824903.715249663,100376.2415490272,1744.3955852072886,0.0008418237894001466,0.0012474309649658654
0.165,1770.3955176847367,3834269.691656639,100622.03113751301,1744.3955852072886,0.0008433394728648782,0.0012669757761813616
0.1675,1776.124429277675,3845665.545125177,100921.09041470599,1744.3955852072886,0.0008448629277745726,0.0012866142286174745
0.17,1782.9285688736384,3859200.223843321,101276.2784877768,1744.3955852072886,0.0008463950024524415,0.0013063571920543357
0.17250000000000001,1790.8067928640216,3874871.452964292,101687.53565834169,1744.3955852072886,0.000847936332197101,0.0013262127816755756
0.17500000000000002,1799.7020437119331,3892565.7346064867,102151.88342246247,1744.3955852072886,0.0008494873392825716,0.0013461863580683231
0.1775,1809.5013499521958,3912058.3478534804,102663.42447064655,1744.3955852072886,0.0008510482329582776,0.0013662805272232049
0.18,1820.0358261913475,3933013.3487540246,103213.3426878469,1744.3955852072886,0.0008526190094490481,0.0013864951405343467
0.1825,1831.0806731076384,3954983.570322049,103789.9031534621,1744.3955852072886,0.0008541994519551156,0.0014068272947993724
0.185,1842.3551774510322,3977410.6225366583,104378.45214133625,1744.3955852072886,0.0008557891306521174,0.0014272713322194038
0.1875,1853.505813349104,3999591.2777473396,104960.53497815813,1744.3955852072886,0.0008573872608901125,0.0014478170224469457
0.19,1863.75195050254,4019972.719444402,105495.40138714647,1744.3955852072886,0.0008589891319398733,0.0014684038170724226
0.1925,1872.8855270528275,4038141.074518872,105972.19017276548,1744.3955852072886,0.0008605933226155496,0.0014890134355045055
0.195,1880.9896434378427,4054261.6449478944,106395.23932426184,1744.3955852072886,0.0008622004571876328,0.0015096538424331605
0.1975,1888.1473712103582,4068499.6752508604,106768.88532302906,1744.3955852072886,0.0008638109956911482,0.001530330903239483
0.2,1894.4417530380458,4081020.3524894076,107097.46314260739,1744.3955852072886,0.0008654252339256556,0.0015510483839956996
0.2025,1899.9558027034743,4091988.80626742,107385.3062486839,1744.3955852072886,0.0008670433034552488,0.0015718079514651661
0.20500000000000002,1904.7725051041111,4101570.1087310268,107636.74659909245,1744.3955852072886,0.000868665171608556,0.001592609173102369
0.20750000000000002,1908.9748162523204,4109929.2745686052,107856.11464381365,1744.3955852072886,0.0008702906414787398,0.0016134495170529253
0.21,1912.6456632753657,4117231.261010778,108047.73932497491,1744.3955852072886,0.0008719193519234966,0.0016343243521535812
0.2125,1915.8679444154072,4123640.9678304144,108215.94807685046,1744.3955852072886,0.0008735507775650574,0.0016552269479322142
0.215,1918.7245290295045,4129323.237342629,108365.06682586124,1744.3955852072886,0.0008751842287901874,0.0016761484746078315
0.2175,1921.2982575896128,4134442.8544047847,108499.41999057506,1744.3955852072886,0.0008768188517501858,0.0016970780030905704
0.22,1923.6719416825874,4139164.5464164885,108623.33048170646,1744.3955852072886,0.0008784536283608863,0.0017180025049816985
0.2225,1925.9283640101796,4143652.983319595,108741.11970211678,1744.3955852072886,0.0008800873763026568,0.0017389068525736136
0.225,1928.1174024795846,4148007.381398469,108855.39136642641,1744.3955852072886,0.0008817208396771962,0.0017598005862108235
0.2275,1930.2367499634922,4152223.15135472,108966.02503852556,1744.3955852072886,0.0008833557426527985,0.0017807057899051973
0.23,1932.2926465050957,4156312.7057760986,109073.34645966136,1744.3955852072886,0.0008849920824547064,0.0018016224340442633
0.2325,1934.2912335829471,4160288.261187248,109177.67622583301,1744.3955852072886,0.0008866298542900868,0.001822550463482449
0.23500000000000001,1936.2385495286944,4164161.8289347487,109279.32954858974,1744.3955852072886,0.0008882690517617592,0.0018434898028385602
0.23750000000000002,1938.1405295270888,4167945.215187122,109378.61625503085,1744.3955852072886,0.0008899096668681959,0.0018644403564957812
0.24,1940.0030056159762,4171650.020934828,109475.8407878057,1744.3955852072886,0.0008915516900035223,0.0018854020086016747
0.2425,1941.8317066863033,4175287.6419902653,109571.30220511371,1744.3955852072886,0.000893195109957516,0.0019063746230681827
0.245,1943.632258482117,4178869.268987773,109665.29418070437,1744.3955852072886,0.0008948399139156079,0.0019273580435716256
0.2475,1945.4101836005605,4182405.8873836286,109758.1050038772,1744.3955852072886,0.0008964860874588813,0.0019483520935527018
0.25,1947.1709014918779,4185908.27745605,109850.0175794818,1744.3955852072886,0.0008981336145640724,0.001969356576216489
0.2525,1948.9197284594118,4189387.014305193,109941.30942791786,1744.3955852072886,0.0008997824776035703,0.001990371274532443
0.255,1950.6618776596024,4192852.4678531536,110032.25268513508,1744.3955852072886,0.0009014326573454166,0.0020113959512343986
0.2575,1952.4076364280877,4196325.101492953,110123.38436817589,1744.3955852072886,0.0009030841188405395,0.0020324301720717384
0.26,1954.168500799249,4199827.782940587,110215.3045902864,1744.3955852072886,0.0009047368273478509,0.002053473508580096
0.2625,1955.9380713500946,4203347.782572723,110307.67929031324,1744.3955852072886,0.0009063908007932559,0.0020745261949024043
0.265,1957.7098402137813,4206872.155051358,110400.16874614288,1744.3955852072886,0.0009080460566817623,0.002095588459833127
0.2675,1959.4779314452053,4210389.212046469,110492.46622308993,1744.3955852072886,0.0009097026099707655,0.002116660500112664
0.27,1961.2371010210054,4213888.522236006,110584.29797389705,1744.3955852072886,0.0009113604730700485,0.00213774248042735
0.2725,1962.9827368395631,4217360.911305902,110675.42323873505,1744.3955852072886,0.0009130196558417815,0.002158834533409455
0.275,1964.7108587210023,4220798.461950064,110765.63424520293,1744.3955852072886,0.0009146801656005224,0.0021799367596371834
0.2775,1966.4181184071863,4224194.513870375,110854.7562083277,1744.3955852072886,0.0009163420071132165,0.0022010492276346746
0.28,1968.101799561722,4227543.663776699,110942.64733056452,1744.3955852072886,0.0009180051825991963,0.0022221719738720045
0.28250000000000003,1969.7598177699576,4230841.765386875,111029.19880179668,1744.3955852072886,0.0009196696917301823,0.002243305002765182
0.28500000000000003,1971.3907205389844,4234085.929426719,111114.3347993356,1744.3955852072886,0.0009213355316302819,0.0022644482866761516
0.28750000000000003,1972.9936872976325,4237274.523630025,111198.01248792074,1744.3955852072886,0.0009230026968759903,0.002285601765912794
0.29,1974.5685293964775,4240407.172738564,111280.22201971979,1744.3955852072886,0.00092467117949619,0.002306765348728924
0.2925,1976.1156901078332,4243484.758502084,111360.98653432842,1744.3955852072886,0.0009263409689721512,0.002327938911324291
0.295,1977.6362446257585,4246509.419678311,111440.36215877054,1744.3955852072886,0.0009280120522375313,0.002349122297844581
0.2975,1979.1319000660515,4249484.552032947,111518.43800749807,1744.3955852072886,0.0009296844136783753,0.002370315320381413
0.3,1980.6049954662542,4252414.808339673,111595.33618239118,1744.3955852072886,0.0009313580351331156,0.002391517758972342
0.3025,1982.058501785648,4255306.098380146,111671.21177275799,1744.3955852072886,0.000933032895892572,0.002412729361600859
0.305,1983.4960219052589,4258165.588943999,111746.25285533484,1744.3955852072886,0.0009347089726999521,0.0024339498441963876
0.3075,1984.9217906278532,4261001.703828847,111820.68049428618,1744.3955852072886,0.0009363862397508505,0.0024551788906342895
0.31,1986.3406746779392,4263824.123840277,111894.74874120456,1744.3955852072886,0.0009380646686932495,0.0024764161527358586
0.3125,1987.758172701766,4266643.786791855,111968.74463511058,1744.3955852072886,0.000939744228627519,0.0024976612502683256
0.315,1989.1804152673265,4269472.887505125,112042.9882024531,1744.3955852072886,0.000941424886106416,0.0025189137709448555
0.3175,1990.6141648643543,4272324.877809608,112117.83245710896,1744.3955852072886,0.0009431066051350852,0.002540173270424549
0.32,1992.0668159043241,4275214.466542803,112193.66340038319,1744.3955852072886,0.000944789347171059,0.0025614392723124404
0.3225,1993.5463947204548,4278157.619550183,112270.90002100889,1744.3955852072886,0.0009464730711242565,0.002582711268159501
0.325,1995.0693282633592,4281187.013042423,112350.39983474583,1744.3955852072886,0.0009481577038368579,0.002603988351620469
0.3275,1996.6824323230653,4284395.772192515,112434.60670830404,1744.3955852072886,0.0009498430592901928,0.002625268225172376
0.33,1998.3730609604809,4287758.741913579,112522.86050138586,1744.3955852072886,0.0009515291817719478,0.0026465514577303753
0.3325,2000.1197619725253,4291233.249848234,112614.04137120028,1744.3955852072886,0.000953216149369358,0.0026678390374366505
0.335,2001.9026218521296,4294779.68438703,112707.10979759878,1744.3955852072886,0.0009549040343290032,0.0026891318794309313
0.3375,2003.7032657882432,4298361.494668455,112801.10658307541,1744.3955852072886,0.000956592903056807,0.0027104308258504924
0.34,2005.5048576658269,4301945.1905789245,112895.1528527667,1744.3955852072886,0.0009582828161180377,0.002731736645830154
0.3425,2007.2921000658587,4305500.34275279,112988.45005445172,1744.3955852072886,0.000959973828237308,0.0027530500355022825
0.34500000000000003,2009.0512342653283,4308999.5825723335,113080.27995855208,1744.3955852072886,0.0009616659882985747,0.0027743716179967895
0.34750000000000003,2010.7700402372423,4312418.602167769,113170.00465813185,1744.3955852072886,0.0009633593393451392,0.0027957019434411328
0.35000000000000003,2012.43783665062,4315736.154417247,113257.0665688977,1744.3955852072886,0.0009650539185796472,0.0028170414889603155
0.3525,2014.045480870497,4318934.052946845,113340.98842919878,1744.3955852072886,0.0009667497573640886,0.0028383906586768857
0.355,2015.5853689579214,4321997.172130577,113421.37330002675,1744.3955852072886,0.0009684468812197978,0.0028597497837109386
0.3575,2017.0514356699582,4324913.44709039,113497.90456501585,1744.3955852072886,0.0009701453098274537,0.0028811191221801142
0.36,2018.4391544596836,4327673.87369616,113570.34593044274,1744.3955852072886,0.0009718450570270791,0.0029024988591995976
0.3625,2019.7455374761923,4330272.508565699,113638.54142522674,1744.3955852072886,0.0009735461308180416,0.0029238891068821206
0.365,2020.9691355645898,4332706.469064749,113702.41540092955,1744.3955852072886,0.000975248533359053,0.0029452899043379602
0.3675,2022.1100382659984,4334975.9333069865,113761.97253175547,1744.3955852072886,0.0009769522609681693,0.002966701217674939
0.37,2023.1698738175546,4337084.14015402,113817.29781455135,1744.3955852072886,0.0009786573041227912,0.0029881229399984243
0.3725,2024.1518091524088,4339037.38921539,113868.55656880647,1744.3955852072886,0.0009803636474596635,0.0030095548914113313
0.375,2025.060549899727,4340845.040848571,113915.99443665272,1744.3955852072886,0.0009820712697748753,0.003030996819014119
0.3775,2025.9023403846877,4342519.516158968,113959.93738286446,1744.3955852072886,0.0009837801440238604,0.0030524483969047926
0.38,2026.684963628486,4344076.29699992,114000.79169485859,1744.3955852072886,0.0009854902373213964,0.003073909226178903
0.3825,2027.4177413483305,4345533.925972699,114039.04398269454,1744.3955852072886,0.000987201510941606,0.0030953788349295467
0.385,2028.1115339574444,4346914.006426509,114075.26117907424,1744.3955852072886,0.0009889139203179552,0.0031168566782473653
0.3875,2028.778740565065,4348241.202458484,114110.09053934216,1744.3955852072886,0.0009906274150432558,0.0031383421382205475
0.39,2029.4332989764455,4349543.238913696,114144.25964148529,1744.3955852072886,0.0009923419388696625,0.0031598345239348263
0.3925,2030.0906856928518,4350850.901385144,114178.57638613309,1744.3955852072886,0.0009940574297086753,0.00318133307147348
