Time,Thrust,Chamber Pressure,Exit Pressure,Exit Velocity,Free Volume,Regressed Length
0.0,-115.39802230598374,101325.0,2659.053255224573,1402.6426138610677,0.0007461785375992363,0.0
0.0025,110.39613950433429,649098.4090864229,17034.169628841297,1402.6426138610677,0.0007470443069235841,1.1424627137580964e-05
0.005,333.739232189624,1190925.5595107148,31253.23943495793,1402.6426138610677,0.0007481210126155397,2.5629129854372597e-05
0.0075,529.8613300250615,1666714.9655217845,43739.29291489971,1402.6426138610677,0.000749311168041947,4.132568964773038e-05
0.01,694.5103006198033,2066151.0147187414,54221.61935823759,1402.6426138610677,0.000750573264379595,5.7965708017184335e-05
0.0125,830.5692185842335,2396228.004896174,62883.768829799716,1402.6426138610677,0.000751885406590257,7.525975908906367e-05
0.015,941.9240897617798,2666373.3306842945,69973.14270515727,1402.6426138610677,0.0007532345732767444,9.303564760168958e-05
0.0175,1031.9521107049447,2884780.0226463713,75704.7491717212,1402.6426138610677,0.0007546134759336402,0.00011119688542161116
0.02,1104.0828487425724,3059768.162100495,80296.93058638864,1402.6426138610677,0.0007560153624783569,0.0001296541862410536
0.0225,1161.7920697200168,3199769.9073054586,83970.9705205054,1402.6426138610677,0.0007574338823113946,0.00014832368582390205
0.025,1208.4997522623225,3313082.077520995,86944.60086906876,1402.6426138610677,0.000758863460470508,0.00016713185712337517
0.0275,1246.2800405958312,3404736.5169927264,89349.87139098429,1402.6426138610677,0.0007603025947890645,0.0001860587940063518
0.03,1276.5044712402043,3478060.5537128286,91274.10054002742,1402.6426138610677,0.0007617501435268532,0.000205089363475441
0.0325,1300.541409124869,3536373.821440904,92804.40485164963,1402.6426138610677,0.000763204635305021,0.00022420413085534727
0.035,1319.716484186567,3582892.279455146,94025.18015104067,1402.6426138610677,0.0007646645951662275,0.00024338364434551494
0.0375,1335.30460959975,3620708.848893372,95017.59339620367,1402.6426138610677,0.0007661285633817879,0.0002626086819511803
0.04,1348.1387431739658,3651844.2734953803,95834.67459177012,1402.6426138610677,0.000767595768174402,0.00028186907813900955
0.0425,1358.5423825163984,3677083.3538321755,96497.0191141331,1402.6426138610677,0.000769065990882717,0.0003011619360491542
0.045,1366.852099020599,3697242.607293615,97026.05467830323,1402.6426138610677,0.00077053892660139,0.0003204832341807873
0.0475,1373.44288567558,3713231.7615109556,97445.65509843554,1402.6426138610677,0.0007720142154888354,0.00033982823852270617
0.05,1378.728157065818,3726053.7543568546,97782.1402878296,1402.6426138610677,0.0007734914427672251,0.0003591915025533321
0.0525,1383.1597493712513,3736804.7339453683,98064.27625892944,1402.6426138610677,0.0007749701387224876,0.0003785668672407103
0.055,1387.0724940342586,3746296.9965696814,98313.37995328549,1402.6426138610677,0.0007764499700133902,0.0003979499683441958
0.0575,1390.4309420551704,3754444.5434632977,98527.19452115684,1402.6426138610677,0.000777931014247773,0.0004173418271928014
0.06,1393.2467001514492,3761275.532356877,98706.45890066709,1402.6426138610677,0.0007794132668310816,0.00043674238648808427
0.0625,1395.5614804670745,3766891.1563154873,98853.82868272738,1402.6426138610677,0.0007808966912742062,0.00045615117350858404
0.065,1397.4455946015387,3771461.9902744736,98973.78023385232,1402.6426138610677,0.0007823812212067311,0.0004755673265203682
0.0675,1398.9979536098467,3775227.991039458,99072.61069615984,1402.6426138610677,0.0007838667603769342,0.0004949895947770321
0.07,1400.3460680025141,3778498.4972863393,99158.4379873713,1402.6426138610677,0.0007853531826517873,0.0005144163385196993
0.0725,1401.6460477455705,3781652.2295612935,99241.20080081146,1402.6426138610677,0.0007868403320169558,0.0005338455289770212
0.075,1402.9753423093327,3784877.0791722573,99325.8299333616,1402.6426138610677,0.0007883281324899545,0.0005532761859374549
0.0775,1404.2416764924665,3787949.1877997625,99406.45071250171,1402.6426138610677,0.0007898166785584143,0.0005727095558828262
0.08,1405.4150099321025,3790795.677952881,99481.15062770146,1402.6426138610677,0.0007913059992549506,0.0005921460274150378
0.0825,1406.4779539324484,3793374.364904169,99548.82263295216,1402.6426138610677,0.0007927961110593523,0.0006115858258802976
0.085,1407.4252000202587,3795672.370373414,99609.12876592546,1402.6426138610677,0.0007942870184899549,0.0006310290211118865
0.08750000000000001,1408.263519944839,3797706.1225276357,99662.50014797336,1402.6426138610677,0.0007957787141036396,0.0006504755274301579
0.09,1409.011765678043,3799521.355981085,99710.13698412817,1402.6426138610677,0.0007972711784958341,0.0006699251036425383
0.0925,1409.7008694142748,3801193.111795245,99754.0085631026,1402.6426138610677,0.0007987643803005123,0.000689377353043527
0.095,1410.3738435704872,3802825.737478832,99796.85325728967,1402.6426138610677,0.0008002582761901942,0.0007088317234146964
0.0975,1411.085780786182,3804552.886987791,99842.17852276271,1402.6426138610677,0.0008017528108759459,0.0007282875070246911
0.1,1411.8929868701866,3806511.1574095134,99893.56905164987,1402.6426138610677,0.0008032479276892213,0.0007477439788268695
0.10250000000000001,1412.7486183287333,3808586.9070976893,99948.04256722229,1402.6426138610677,0.000804743670794399,0.0007672017289323943
0.105,1413.6128491687211,3810683.518762322,100003.06355978863,1402.6426138610677,0.000806240078394888,0.0007866612659788063
0.1075,1414.4637084660287,3812747.691255545,100057.23325717277,1402.6426138610677,0.0008077371712593848,0.0008061228711057981
0.11,1415.2843232585244,3814738.4910124037,100109.47744739213,1402.6426138610677,0.0008092349650531497,0.0008255867593757709
0.1125,1416.0629185460627,3816627.3520508558,100159.04647865749,1402.6426138610677,0.0008107334703380064,0.0008450530797738344
0.115,1416.7928172904853,3818398.075971771,100205.51525937315,1402.6426138610677,0.0008122326925723428,0.0008645219152078067
0.11750000000000001,1417.4724404156239,3820046.8319589323,100248.78325813686,1402.6426138610677,0.0008137326321111099,0.000883993282508215
0.12,1418.105306807294,3821582.156779034,100289.0745037398,1402.6426138610677,0.0008152332842058232,0.0009034671324282943
0.1225,1418.7000333133008,3823024.9547816827,100326.93758516664,1402.6426138610677,0.0008167346390045615,0.0009229433496439892
0.125,1419.2703347434378,3824408.4978993977,100363.24565159548,1402.6426138610677,0.0008182366815519673,0.0009424217527539521
0.1275,1419.8350238694836,3825778.42564761,100399.19641239791,1402.6426138610677,0.0008197393917892471,0.0009619020942795443
0.13,1420.4180114252067,3827192.7451246628,100436.31213713894,1402.6426138610677,0.0008212427445541709,0.0009813840606648356
0.1325,1421.048306106361,3828721.8310118127,100476.43965557708,1402.6426138610677,0.0008227467095810727,0.0010008672722766044
0.135,1421.7600145706897,3830448.425573228,100521.75035766426,1402.6426138610677,0.00082425125150085,0.001020351283404338
0.1375,1422.5891094886138,3832459.797993162,100574.53443247991,1402.6426138610677,0.0008257563309499358,0.0010398356027941675
0.14,1423.5122209098654,3834699.253106313,100633.3040392754,1402.6426138610677,0.0008272619687939228,0.0010593205168583748
0.14250000000000002,1424.4819147241321,3837051.7164390762,100695.03929989993,1402.6426138610677,0.0008287682126278706,0.0010788066505261421
0.145,1425.457400536247,3839418.231075829,100757.14330629908,1402.6426138610677,0.000830275103200806,0.0010982945406233127
0.1475,1426.4045354835632,3841715.9669198245,100817.44236354678,1402.6426138610677,0.0008317826744111838,0.0011177846358156913
0.15,1427.2958242359582,3843878.220693196,100874.18598984537,1402.6426138610677,0.0008332909533068872,0.0011372772966090417
0.1525,1428.110418995828,3845854.415936955,100926.04691652562,1402.6426138610677,0.0008347999600852272,0.0011567727953490888
0.155,1428.8341194980922,3847610.103010989,100972.12108804662,1402.6426138610677,0.0008363097080929436,0.0011762713162215177
0.1575,1429.4593730101906,3849126.959094066,101011.92766199594,1402.6426138610677,0.0008378202038262039,0.001195772955251974
0.16,1429.9852743320848,3850402.7881838325,101045.40900908949,1402.6426138610677,0.000839331446930604,0.0012152777203060636
0.1625,1430.4175657962578,3851451.521096812,101072.93071317159,1402.6426138610677,0.0008408434302011681,0.001234785531089353
0.165,1430.7686372677144,3852303.2154684067,101095.28157121496,1402.6426138610677,0.0008423561395823483,0.001254296219147369
0.1675,1431.0575261439803,3853004.0557528967,101113.67359332072,1402.6426138610677,0.0008438695541680254,0.0012738095278655988
0.17,1431.3099173551034,3853616.3532234416,101129.74200271838,1402.6426138610677,0.0008453836462015079,0.00129332511246949
0.17250000000000001,1431.558143363652,3854218.545972078,101145.54523576585,1402.6426138610677,0.0008468983810755327,0.0013128425400244505
0.17500000000000002,1431.8411841647167,3854905.198909722,101163.56494194943,1402.6426138610677,0.000848413717332265,0.0013323612894358488
0.1775,1432.2046672859094,3855787.003766166,101186.7059838838,1402.6426138610677,0.0008499296066632981,0.0013518807514490137
0.18,1432.7008677873632,3856990.7790900827,101218.29643731208,1402.6426138610677,0.0008514459939096535,0.0013714002286492346
0.1825,1433.3887082617332,3858659.470249023,101262.08759110575,1402.6426138610677,0.000852962817061781,0.001390918935461761
0.185,1434.3181888919005,3860914.376971962,101321.26269164223,1402.6426138610677,0.0008544800226415235,0.0014104361978878894
0.1875,1435.3918464157673,3863519.0547781754,101389.61677009694,1402.6426138610677,0.0008559977059032605,0.001429953265182669
0.19,1436.5189830282472,3866253.472088943,101461.3755784003,1402.6426138610677,0.0008575159604993809,0.0014494713523006194
0.1925,1437.6361677627233,3868963.7462859224,101532.50080342898,1402.6426138610677,0.0008590348527058138,0.0014689913198139856
0.195,1438.6921627228028,3871525.5749648535,101599.73040015278,1402.6426138610677,0.0008605544358198597,0.0014885138621781166
0.1975,1439.6479230823188,3873844.235935554,101660.57859163468,1402.6426138610677,0.0008620747501601908,0.0015080395077314652
0.2,1440.4765970853277,3875854.587221922,101713.3358690308,1402.6426138610677,0.0008635958230668511,0.0015275686186955889
0.2025,1441.163526046114,3877521.0670619365,101757.06899159045,1402.6426138610677,0.0008651176689012561,0.0015471013911751484
0.20500000000000002,1441.706244349183,3878837.693907655,101791.62098665607,1402.6426138610677,0.0008666402890461931,0.001566637855157909
0.20750000000000002,1442.114479449269,3879828.066425216,101817.61114966327,1402.6426138610677,0.0008681636719058209,0.0015861778745147397
0.21,1442.4101518713285,3880545.3634948377,101836.43504414085,1402.6426138610677,0.00086968779290567,0.0016057211469996133
0.2125,1442.6273752105433,3881072.344210818,101850.26450171073,1402.6426138610677,0.0008712126144926428,0.0016252672042496071
0.215,1442.8124561323218,3881521.3478815355,101862.04762208802,1402.6426138610677,0.000872738086135013,0.0016448154117849022
0.2175,1443.0238943722954,3882034.2940294477,101875.50877308098,1402.6426138610677,0.0008742641443224262,0.0016643649690087836
0.22,1443.3323827363217,3882782.6823910926,101895.14859059101,1402.6426138610677,0.0008757907125658995,0.0016839149092076403
0.2225,1443.8208071004833,3883967.592917089,101926.24397861272,1402.6426138610677,0.0008773177013978218,0.0017034640995509654
0.225,1444.584120213433,3885819.3796184305,101974.84007489878,1402.6426138610677,0.0008788450085033902,0.0017230112427818465
0.2275,1445.5649634332763,3888198.891249755,102037.28515902528,1402.6426138610677,0.0008803726910648932,0.0017425570908187176
0.23,1446.6096374214721,3890733.2554127164,102103.79400953055,1402.6426138610677,0.0008819009105205517,0.0017621037261186037
0.2325,1447.6620949599337,3893286.502357365,102170.79839738706,1402.6426138610677,0.0008834297270789755,0.0017816519278437118
0.23500000000000001,1448.6763083427709,3895746.969527125,102235.3679827522,1402.6426138610677,0.0008849591899632436,0.001801202335262163
0.23750000000000002,1449.6162693762922,3898027.3015587963,102295.21031496843,1402.6426138610677,0.0008864893374109046,0.001820755447747994
0.24,1450.4559893790044,3900064.4502825537,102348.67083256313,1402.6426138610677,0.0008880201966739764,0.0018403116247811557
0.2425,1451.179499181612,3901819.6747219474,102394.73286324875,1402.6426138610677,0.0008895517840189464,0.0018598710859475147
0.245,1451.7808491270182,3903278.541093903,102433.01762392267,1402.6426138610677,0.0008910841047267714,0.0018794339109388515
0.2475,1452.264109070323,3904450.9228087207,102463.78422066732,1402.6426138610677,0.0008926171530928781,0.0018990000395528622
0.25,1452.6433683788255,3905371.000470076,102487.9296487501,1402.6426138610677,0.0008941509124271621,0.001918569271693157
0.2525,1452.942735932023,3906097.2618750213,102506.98879262341,1402.6426138610677,0.0008956853550539888,0.0019381412673692621
0.255,1453.1963401216094,3906712.502013981,102523.13442592461,1402.6426138610677,0.000897220442312193,0.0019577155466966173
0.2575,1453.4483288514784,3907323.823070757,102539.17721147614,1402.6426138610677,0.0008987561245550788,0.001977291489896578
0.26,1453.7528695377214,3908062.634422526,102558.56570128535,1402.6426138610677,0.0009002923411504201,0.0019968683372964145
0.2625,1454.1741491086264,3909084.65263984,102585.38633654463,1402.6426138610677,0.00090182902048046,0.0020164451893293117
0.265,1454.7863740046812,3910569.901486625,102624.36344763136,1402.6426138610677,0.0009033660799419111,0.0020360210065343692
0.2675,1455.6351752172627,3912629.0810957197,102678.40211767977,1402.6426138610677,0.00090490346729096,0.002055595138838207
0.27,1456.5941848237223,3914955.624693062,102739.45717147633,1402.6426138610677,0.0009064413168305909,0.0020751693180490194
0.2725,1457.5958902608115,3917385.7477652235,102803.23044229425,1402.6426138610677,0.0009079797026106979,0.0020947444969978087
0.275,1458.5926910015116,3919803.972114053,102866.69145711408,1402.6426138610677,0.0009095186770210693,0.002114321352089043
0.2775,1459.5454766388937,3922115.4164513773,102927.35026381955,1402.6426138610677,0.0009110582828778539,0.0021339004384333385
0.28,1460.4236268861148,3924245.796398997,102983.25743119762,1402.6426138610677,0.0009125985534235609,0.0021534821898474615
0.28250000000000003,1461.2050115764184,3926141.4244886874,103033.00404893843,1402.6426138610677,0.0009141395123270601,0.0021730669188543294
0.28500000000000003,1461.8759906631376,3927769.2101622005,103075.72172763532,1402.6426138610677,0.000915681173683582,0.002192654816683008
0.28750000000000003,1462.4314142196906,3929116.6597712627,103111.08259878487,1402.6426138610677,0.0009172235420147175,0.002212245953268714
0.29,1462.8746224395834,3930191.876577576,103139.29931478684,1402.6426138610677,0.0009187666122684182,0.002231840277252813
0.2925,1463.21744563641,3931023.560752818,103161.12504894422,1402.6426138610677,0.000920310369818996,0.002251437615982822
0.295,1463.4802042438512,3931661.0093786404,103177.85349546316,1402.6426138610677,0.0009218547904671239,0.0022710376755124065
0.2975,1463.6917088156742,3932174.1164466715,103191.31886945305,1402.6426138610677,0.0009233998404398349,0.002290640040601383
0.3,1463.8892600257352,3932653.372858514,103203.89590692651,1402.6426138610677,0.0009249454763905228,0.002310244174715716
0.3025,1464.118648667976,3933209.8664257457,103218.49986479928,1402.6426138610677,0.000926491645398942,0.0023298494200275225
0.305,1464.4341556564266,3933975.281869921,103238.5865208904,1402.6426138610677,0.0009280382849712074,0.002349454997415067
0.3075,1464.898552025204,3935101.900822568,103268.15217392208,1402.6426138610677,0.0009295853230397945,0.0023690600064627657
0.31,1465.5830989285123,3936762.601825191,103311.7336435197,1402.6426138610677,0.0009311326779635392,0.0023886634254611837
0.3125,1466.4855983089833,3938952.0524220318,103369.190991032,1402.6426138610677,0.0009326803483472828,0.0024082652566163156
0.315,1467.4903382544082,3941389.5371680423,103433.15745289667,1402.6426138610677,0.0009342284614155719,0.0024278671307761193
0.3175,1468.5365622990619,3943927.6617458137,103499.76498727307,1402.6426138610677,0.0009357770863691728,0.002447469933004799
0.32,1469.572761762856,3946441.46683371,103565.73430976972,1402.6426138610677,0.0009373262816964235,0.0024670744132801957
0.3225,1470.556372818353,3948827.6931947684,103628.35560730807,1402.6426138610677,0.0009388760954997979,0.00248668119067218
0.325,1471.4537764907668,3951004.7816766994,103685.48853812268,1402.6426138610677,0.0009404265654959061,0.002506290753342653
0.3275,1472.2402986579584,3952912.8732118853,103735.562231761,1402.6426138610677,0.0009419777190154944,0.0025259034585455465
0.33,1472.9002100504415,3954513.8088173824,103777.5752890835,1402.6426138610677,0.0009435295730034443,0.002545519532626822
0.3325,1473.4267262513797,3955791.12959492,103811.09578226364,1402.6426138610677,0.000945082134018774,0.002565139071024471
0.335,1473.8220076965854,3956750.0767309004,103836.26125478785,1402.6426138610677,0.0009466353982346376,0.002584762038268517
0.3375,1474.097159674523,3957417.591496398,103853.77872145559,1402.6426138610677,0.0009481893514383248,0.0026043882679810107
0.34,1474.2722323263051,3957842.315247162,103864.92466837923,1402.6426138610677,0.0009497439690312617,0.0026240174628760354
0.3425,1474.376220645696,3958094.5894236113,103871.54505298419,1402.6426138610677,0.0009512992160290099,0.0026436491947597037
0.34500000000000003,1474.4470644791093,3958266.455550841,103876.05530400884,1402.6426138610677,0.0009528550470612675,0.002663282904530159
0.34750000000000003,1474.5316485256087,3958471.6552386186,103881.44032150459,1402.6426138610677,0.0009544114063718682,0.0026829179021775743
0.35000000000000003,1474.685802336909,3958845.630181383,103891.25447683575,1402.6426138610677,0.0009559682278187819,0.002702553366784153
0.3525,1474.9743003173735,3959545.522158247,103909.62161267968,1402.6426138610677,0.0009575254348741143,0.0027221883465241284
0.355,1475.4708617240178,3960750.1730329967,103941.2350430267,1402.6426138610677,0.0009590829406241072,0.0027418217586637652
0.3575,1476.253344897215,3962648.4660264845,103991.05159534552,1402.6426138610677,0.0009606406531702372,0.002761452458117978
0.36,1477.2381811049547,3965037.66458937,104053.75089182732,1402.6426138610677,0.0009621986639859904,0.0027810816224125945
0.3625,1478.3109343859621,3967640.148715332,104122.04740193646,1402.6426138610677,0.0009637571047170043,0.00280071092488907
0.365,1479.4088957277759,3970303.78723649,104191.94877554047,1402.6426138610677,0.0009653160491131192,0.0028203413033304836
0.3675,1480.4789993556776,3972899.8433418903,104260.0765962936,1402.6426138610677,0.0009668755593785477,0.002839973550716971
0.37,1481.4778227326938,3975322.9745775107,104323.66638163693,1402.6426138610677,0.0009684356861718743,0.0028596083152257253
0.3725,1482.3715865595948,3977491.2328462563,104380.5675827983,1402.6426138610677,0.0009699964686060561,0.002879246100230995
0.375,1483.136154774896,3979346.0644079624,104429.24358479236,1402.6426138610677,0.0009715579342484222,0.0028988872643040875
0.3775,1483.7570345548572,3980852.3098793924,104468.77170642052,1402.6426138610677,0.000973120099120674,0.0029185320212133654
0.38,1484.2293763134817,3981998.2042342387,104498.84320027097,1402.6426138610677,0.000974682967698885,0.00293818043992425
0.3825,1484.5579737025184,3982795.376803124,104519.76325271874,1402.6426138610677,0.0009762465329135014,0.0029578324445992178
0.385,1484.7572636114605,3983278.851273598,104532.45098392558,1402.6426138610677,0.0009778107761493407,0.0029774878145978033
0.3875,1484.8513261675437,3983507.0456901416,104538.43944784005,1402.6426138610677,0.0009793756672455938,0.002997146184476598
0.39,1484.8738847357506,3983561.7724541626,104539.8756321975,1402.6426138610677,0.000980941164495823,0.00301680704398925
